# spatial freqs [1/mm], spectrum [a.u.]
0.000000000000000000e+00,1.328825121514227448e+01
9.766186017119550620e-04,1.328789577055460036e+01
1.953237203423910124e-03,1.358754032596692873e+01
2.929855805135865403e-03,1.400718488137925632e+01
3.906474406847820248e-03,1.456682943679158093e+01
4.883093008559775093e-03,1.516647399220390824e+01
5.859711610271730806e-03,1.584611854761623384e+01
6.836330211983685651e-03,1.616576310302856356e+01
7.812948813695640496e-03,1.636540765844088696e+01
8.789567415407595341e-03,1.634505221385321150e+01
9.766186017119550186e-03,1.616469676926553944e+01
1.074280461883150503e-02,1.590434132467786377e+01
1.171942322054346161e-02,1.556398588009018980e+01
1.269604182225541646e-02,1.510363043550251660e+01
1.367266042396737130e-02,1.472327499091484349e+01
1.464927902567932615e-02,1.446291954632716781e+01
1.562589762739128099e-02,1.428256410173949398e+01
1.660251622910323757e-02,1.410220865715182015e+01
1.757913483081519068e-02,1.388185321256414895e+01
1.855575343252714726e-02,1.360149776797647370e+01
1.953237203423910037e-02,1.328114232338879930e+01
2.050899063595105695e-02,1.306078687880112632e+01
2.148560923766301006e-02,1.256043143421345221e+01
2.246222783937496664e-02,1.200007598962578115e+01
2.343884644108692322e-02,1.149972054503810703e+01
2.441546504279887633e-02,1.151936510045043249e+01
2.539208364451083291e-02,1.165900965586275895e+01
2.636870224622278602e-02,1.191865421127508284e+01
2.734532084793474260e-02,1.231829876668741086e+01
2.832193944964669571e-02,1.281794332209973852e+01
2.929855805135865229e-02,1.335758787751206356e+01
3.027517665307060540e-02,1.377723243292438760e+01
3.125179525478256198e-02,1.421687698833671476e+01
3.222841385649451856e-02,1.461652154374903922e+01
3.320503245820647514e-02,1.499616609916136944e+01
3.418165105991842478e-02,1.549581065457369533e+01
3.515826966163038136e-02,1.607545520998602129e+01
3.613488826334233794e-02,1.661509976539834454e+01
3.711150686505429452e-02,1.697474432081066809e+01
3.808812546676624416e-02,1.735438887622300186e+01
3.906474406847820074e-02,1.775403343163532455e+01
4.004136267019015732e-02,1.811367798704764809e+01
4.101798127190211390e-02,1.841332254245997646e+01
4.199459987361407048e-02,1.865296709787230256e+01
4.297121847532602013e-02,1.865261165328463022e+01
4.394783707703797671e-02,1.851225620869695732e+01
4.492445567874993329e-02,1.831190076410928569e+01
4.590107428046188986e-02,1.817154531952160923e+01
4.687769288217384644e-02,1.795118987493393448e+01
4.785431148388579609e-02,1.769083443034626058e+01
4.883093008559775267e-02,1.739047898575858753e+01
4.980754868730970925e-02,1.751012354117091618e+01
5.078416728902166583e-02,1.770976809658323958e+01
5.176078589073361547e-02,1.784941265199556781e+01
5.273740449244557205e-02,1.782905720740789235e+01
5.371402309415752863e-02,1.762870176282021717e+01
5.469064169586948521e-02,1.722834631823254270e+01
5.566726029758144179e-02,1.666799087364487164e+01
5.664387889929339143e-02,1.600763542905719916e+01
5.762049750100534801e-02,1.536727998446952270e+01
5.859711610271730459e-02,1.464692453988184973e+01
5.957373470442926117e-02,1.414656909529417739e+01
6.055035330614121081e-02,1.364621365070650327e+01
6.152697190785316739e-02,1.322585820611882745e+01
6.250359050956512397e-02,1.288550276153115348e+01
6.348020911127708055e-02,1.270514731694347965e+01
6.445682771298903713e-02,1.274479187235580646e+01
6.543344631470099371e-02,1.294443642776813164e+01
6.641006491641295029e-02,1.318408098318045951e+01
6.738668351812489299e-02,1.338372553859278469e+01
6.836330211983684957e-02,1.308337009400510986e+01
6.933992072154880615e-02,1.244301464941743696e+01
7.031653932326076273e-02,1.174265920482976355e+01
7.129315792497271931e-02,1.114230376024209157e+01
7.226977652668467589e-02,1.078194831565441447e+01
7.324639512839663247e-02,1.060159287106674064e+01
7.422301373010858905e-02,1.050123742647906866e+01
7.519963233182054563e-02,1.048088198189139675e+01
7.617625093353248833e-02,1.058052653730372050e+01
7.715286953524444491e-02,1.070017109271604738e+01
7.812948813695640149e-02,1.095981564812837128e+01
7.910610673866835807e-02,1.131946020354070015e+01
8.008272534038031465e-02,1.193910475895302525e+01
8.105934394209227123e-02,1.281874931436535370e+01
8.203596254380422781e-02,1.361839386977767674e+01
8.301258114551618439e-02,1.421803842519000405e+01
8.398919974722814097e-02,1.511768298060232851e+01
8.496581834894008367e-02,1.579732753601465944e+01
8.594243695065204025e-02,1.631697209142698668e+01
8.691905555236399683e-02,1.649661664683931050e+01
8.789567415407595341e-02,1.611626120225163206e+01
8.887229275578790999e-02,1.539590575766396086e+01
8.984891135749986657e-02,1.417555031307628788e+01
9.082552995921182315e-02,1.255519486848861455e+01
9.180214856092377973e-02,1.087483942390094072e+01
9.277876716263573631e-02,9.294483979313268307e+00
9.375538576434769289e-02,7.534128534725593518e+00
9.473200436605963559e-02,5.933773090137919759e+00
9.570862296777159217e-02,4.253417645550247705e+00
9.668524156948354875e-02,2.673062200962573520e+00
9.766186017119550533e-02,1.412706756374897621e+00
9.863847877290746191e-02,2.723513117872247702e-01
9.961509737461941849e-02,-7.880041328004498968e-01
1.005917159763313751e-01,-1.528359577388122448e+00
1.015683345780433317e-01,-2.248715021975796091e+00
1.025449531797552882e-01,-2.789070466563470241e+00
1.035215717814672309e-01,-3.429425911151144035e+00
1.044981903831791875e-01,-4.089781355738818291e+00
1.054748089848911441e-01,-4.630136800326492441e+00
1.064514275866031007e-01,-4.970492244914164637e+00
1.074280461883150573e-01,-5.170847689501838929e+00
1.084046647900270138e-01,-4.991203134089513327e+00
1.093812833917389704e-01,-4.551558578677187050e+00
1.103579019934509270e-01,-3.931914023264861058e+00
1.113345205951628836e-01,-3.092269467852533538e+00
1.123111391968748263e-01,-2.352624912440207439e+00
1.132877577985867829e-01,-1.492980357027881455e+00
1.142643764002987394e-01,-6.533358016155557113e-01
1.152409950020106960e-01,2.863087537967697327e-01
1.162176136037226526e-01,1.165953309209098121e+00
1.171942322054346092e-01,2.025597864621423660e+00
1.181708508071465658e-01,2.565242420033748694e+00
1.191474694088585223e-01,2.924886975446075787e+00
1.201240880105704789e-01,2.984531530858400394e+00
1.211007066122824216e-01,2.664176086270727772e+00
1.220773252139943782e-01,2.303820641683054227e+00
1.230539438157063348e-01,1.903465197095379535e+00
1.240305624174182914e-01,1.503109752507706842e+00
1.250071810191302479e-01,1.162754307920032870e+00
1.259837996208421906e-01,9.223988633323585429e-01
1.269604182225541611e-01,7.220434187446851393e-01
1.279370368242661038e-01,6.016879741570118068e-01
1.289136554259780743e-01,6.813325295693377637e-01
1.298902740276900170e-01,8.809770849816629390e-01
1.308668926294019874e-01,1.240621640393990033e+00
1.318435112311139301e-01,1.720266195806316345e+00
1.328201298328259006e-01,2.039910751218642737e+00
1.337967484345378433e-01,2.299555306630968410e+00
1.347733670362497860e-01,2.439199862043294864e+00
1.357499856379617564e-01,2.338844417455621105e+00
1.367266042396736991e-01,1.998488972867946911e+00
1.377032228413856696e-01,1.638133528280273365e+00
1.386798414430976123e-01,1.177778083692600175e+00
1.396564600448095828e-01,7.174226391049252083e-01
1.406330786465215255e-01,1.570671945172524009e-01
1.416096972482334959e-01,-2.832882500704229645e-01
1.425863158499454386e-01,-5.836436946580942919e-01
1.435629344516573813e-01,-6.839991392457680508e-01
1.445395530533693518e-01,-6.843545838334421649e-01
1.455161716550812945e-01,-5.447100284211174870e-01
1.464927902567932649e-01,-2.250654730087912891e-01
1.474694088585052076e-01,3.457908240353617380e-02
1.484460274602171781e-01,1.942236378158621879e-01
1.494226460619291208e-01,2.338681932281889975e-01
1.503992646636410913e-01,9.351274864051432878e-02
1.513758832653530340e-01,-1.668426959471595861e-01
1.523525018670649767e-01,-6.271981405348328042e-01
1.533291204687769471e-01,-1.067553585122506421e+00
1.543057390704888898e-01,-1.447909029710181317e+00
1.552823576722008603e-01,-1.708264474297854330e+00
1.562589762739128030e-01,-1.888619918885529048e+00
1.572355948756247734e-01,-1.888975363473203162e+00
1.582122134773367161e-01,-1.829330808060875002e+00
1.591888320790486866e-01,-1.729686252648549472e+00
1.601654506807606293e-01,-1.610041697236224367e+00
1.611420692824725720e-01,-1.470397141823897913e+00
1.621186878841845425e-01,-1.410752586411571530e+00
1.630953064858964852e-01,-1.351108030999243370e+00
1.640719250876084556e-01,-1.311463475586918337e+00
1.650485436893203983e-01,-1.251818920174591954e+00
1.660251622910323688e-01,-1.172174364762265997e+00
1.670017808927443115e-01,-1.132529809349940964e+00
1.679783994944562819e-01,-1.032885253937613657e+00
1.689550180961682246e-01,-8.532406985252862786e-01
1.699316366978801673e-01,-5.535961431129614585e-01
1.709082552995921378e-01,-3.339515877006348776e-01
1.718848739013040805e-01,-4.343070322883086365e-01
1.728614925030160510e-01,-6.346624768759838719e-01
1.738381111047279937e-01,-7.950179214636563518e-01
1.748147297064399641e-01,-9.353733660513292580e-01
1.757913483081519068e-01,-1.055728810639004367e+00
1.767679669098638773e-01,-1.116084255226678978e+00
1.777445855115758200e-01,-1.116439699814353093e+00
1.787212041132877627e-01,-1.016795144402024009e+00
1.796978227149997331e-01,-6.971505889896978392e-01
1.806744413167116758e-01,-1.575060335773727782e-01
1.816510599184236463e-01,5.621385218349537194e-01
1.826276785201355890e-01,1.341783077247278966e+00
1.836042971218475595e-01,2.201427632659606282e+00
1.845809157235595022e-01,2.901072188071933233e+00
1.855575343252714726e-01,3.460716743484257840e+00
1.865341529269834153e-01,3.800361298896585360e+00
1.875107715286953858e-01,4.080005854308910607e+00
1.884873901304073285e-01,4.399650409721236777e+00
1.894640087321192712e-01,4.399294965133564439e+00
1.904406273338312416e-01,4.098939520545889614e+00
1.914172459355431843e-01,3.518584075958215429e+00
1.923938645372551548e-01,2.758228631370541528e+00
1.933704831389670975e-01,1.797873186782868116e+00
1.943471017406790680e-01,8.975177421951954226e-01
1.953237203423910107e-01,7.716229760752106592e-02
1.963003389441029811e-01,-5.431931469801540846e-01
1.972769575458149238e-01,-1.103548591567826920e+00
1.982535761475268665e-01,-1.303904036155502100e+00
1.992301947492388370e-01,-1.224259480743174366e+00
2.002068133509507797e-01,-9.046149253308481963e-01
2.011834319526627501e-01,-4.049703699185222550e-01
2.021600505543746928e-01,9.467418549380361703e-02
2.031366691560866633e-01,6.143187409061290349e-01
2.041132877577986060e-01,9.739632963184561287e-01
2.050899063595105765e-01,1.153607851730783507e+00
2.060665249612225192e-01,1.133252407143109819e+00
2.070431435629344619e-01,1.032896962555434284e+00
2.080197621646464323e-01,7.925415179677617328e-01
2.089963807663583750e-01,5.521860733800874055e-01
2.099729993680703455e-01,4.118306287924145548e-01
2.109496179697822882e-01,3.714751842047395169e-01
2.119262365714942586e-01,3.711197396170654028e-01
2.129028551732062013e-01,4.107642950293922124e-01
2.138794737749181718e-01,6.904088504417174033e-01
2.148560923766301145e-01,1.030053405854044923e+00
2.158327109783420572e-01,1.109697961266370880e+00
2.168093295800540277e-01,9.693425166786979741e-01
2.177859481817659704e-01,6.489870720910235757e-01
2.187625667834779408e-01,2.486316275033491341e-01
2.197391853851898835e-01,-1.517238170843253353e-01
2.207158039869018540e-01,-5.520792616719980561e-01
2.216924225886137967e-01,-8.924347062596720281e-01
2.226690411903257671e-01,-1.212790150847344650e+00
2.236456597920377098e-01,-1.453145595435018977e+00
2.246222783937496525e-01,-1.673501040022693731e+00
2.255988969954616230e-01,-1.733856484610365678e+00
2.265755155971735657e-01,-1.654211929198040609e+00
2.275521341988855362e-01,-1.434567373785714084e+00
2.285287528005974789e-01,-1.094922818373388340e+00
2.295053714023094493e-01,-6.352782629610633780e-01
2.304819900040213920e-01,-5.563370754873560309e-02
2.314586086057333625e-01,4.640108478635916467e-01
2.324352272074453052e-01,8.636554032759160560e-01
2.334118458091572479e-01,1.083299958688242581e+00
2.343884644108692183e-01,1.242944514100568609e+00
2.353650830125811610e-01,1.362589069512893714e+00
2.363417016142931315e-01,1.562233624925222442e+00
2.373183202160050742e-01,1.721878180337548470e+00
2.382949388177170447e-01,1.821522735749874000e+00
2.392715574194289874e-01,1.681167291162199318e+00
2.402481760211409578e-01,1.420811846574525417e+00
2.412247946228529005e-01,1.120456401986854145e+00
2.422014132245648432e-01,8.601009573991784674e-01
2.431780318262768137e-01,5.797455128115049927e-01
2.441546504279887564e-01,4.193900682238307920e-01
2.451312690297007268e-01,3.190346236361570331e-01
2.461078876314126695e-01,1.786791790484840992e-01
2.470845062331246400e-01,-4.167626553918886423e-02
2.480611248348365827e-01,-1.820317101268635607e-01
2.490377434365485532e-01,-1.623871547145381011e-01
2.500143620382604959e-01,-2.742599302212061878e-03
2.509909806399724386e-01,3.369019561101136984e-01
2.519675992416843813e-01,7.365465115224416603e-01
2.529442178433963795e-01,1.116191066934768328e+00
2.539208364451083222e-01,1.395835622347093574e+00
2.548974550468202649e-01,1.495480177759419105e+00
2.558740736485322076e-01,1.575124733171745062e+00
2.568506922502442058e-01,1.474769288584073079e+00
2.578273108519561485e-01,1.234413843996398752e+00
2.588039294536680912e-01,8.540583994087238562e-01
2.597805480553800339e-01,3.737029548210511476e-01
2.607571666570919766e-01,-6.665248976662425939e-02
2.617337852588039748e-01,-4.470079343542955885e-01
2.627104038605159175e-01,-4.073633789419705553e-01
2.636870224622278602e-01,-8.771882352964439911e-02
2.646636410639398029e-01,3.519257318826810033e-01
2.656402596656518011e-01,8.115702872950076863e-01
2.666168782673637438e-01,1.171214842707333004e+00
2.675934968690756866e-01,1.530859398119661874e+00
2.685701154707876293e-01,1.870503953531987618e+00
2.695467340724995720e-01,2.170148508944312660e+00
2.705233526742115702e-01,2.629793064356639398e+00
2.714999712759235129e-01,3.169437619768964431e+00
2.724765898776354556e-01,3.749082175181292165e+00
2.734532084793473983e-01,4.548726730593618761e+00
2.744298270810593965e-01,5.368371286005944931e+00
2.754064456827713392e-01,6.148015841418270178e+00
2.763830642844832819e-01,6.887660396830594500e+00
2.773596828861952246e-01,7.747304952242925147e+00
2.783363014879071673e-01,8.286949507655249292e+00
2.793129200896191655e-01,8.426594063067575746e+00
2.802895386913311082e-01,8.226238618479902343e+00
2.812661572930430509e-01,7.805883173892227411e+00
2.822427758947549936e-01,7.385527729304551592e+00
2.832193944964669918e-01,6.865172284716879680e+00
2.841960130981789345e-01,6.404816840129208266e+00
2.851726316998908772e-01,6.004461395541532021e+00
2.861492503016028199e-01,5.764105950953859470e+00
2.871258689033147626e-01,5.663750506366183934e+00
2.881024875050267609e-01,5.663395061778511597e+00
2.890791061067387036e-01,5.763039617190838904e+00
2.900557247084506463e-01,5.962684172603164079e+00
2.910323433101625890e-01,6.322328728015489396e+00
2.920089619118745872e-01,6.601973283427816419e+00
2.929855805135865299e-01,7.001617838840142660e+00
2.939621991152984726e-01,7.401262394252470678e+00
2.949388177170104153e-01,7.740906949664796421e+00
2.959154363187223580e-01,7.660551505077120460e+00
2.968920549204343562e-01,7.340196060489446062e+00
2.978686735221462989e-01,6.999840615901772090e+00
2.988452921238582416e-01,6.579485171314101599e+00
2.998219107255701843e-01,6.179129726726427130e+00
3.007985293272821825e-01,5.818774282138751808e+00
3.017751479289941252e-01,5.638418837551077978e+00
3.027517665307060679e-01,5.518063392963404645e+00
3.037283851324180106e-01,5.437707948375732236e+00
3.047050037341299533e-01,5.397352503788057199e+00
3.056816223358419515e-01,5.456997059200383582e+00
3.066582409375538942e-01,5.676641614612710107e+00
3.076348595392658369e-01,6.036286170025035425e+00
3.086114781409777796e-01,6.595930725437363584e+00
3.095880967426897779e-01,7.495575280849688049e+00
3.105647153444017206e-01,8.195219836262012336e+00
3.115413339461136633e-01,8.554864391674341206e+00
3.125179525478256060e-01,8.534508947086663966e+00
3.134945711495375487e-01,8.174153502498992196e+00
3.144711897512495469e-01,7.493798057911319255e+00
3.154478083529614896e-01,6.833442613323644999e+00
3.164244269546734323e-01,6.313087168735971311e+00
3.174010455563853750e-01,6.012731724148298262e+00
3.183776641580973732e-01,6.032376279560623722e+00
3.193542827598093159e-01,6.412020834972952166e+00
3.203309013615212586e-01,7.191665390385275636e+00
3.213075199632332013e-01,8.251309945797602907e+00
3.222841385649451440e-01,9.430954501209928509e+00
3.232607571666571422e-01,1.051059905662225269e+01
3.242373757683690849e-01,1.139024361203458291e+01
3.252139943700810276e-01,1.178988816744690737e+01
3.261906129717929703e-01,1.142953272285923383e+01
3.271672315735049685e-01,1.080917727827155872e+01
3.281438501752169112e-01,1.012882183368388489e+01
3.291204687769288539e-01,9.668466389096211699e+00
3.300970873786407966e-01,9.608110944508538864e+00
3.310737059803527393e-01,9.747755499920865319e+00
3.320503245820647376e-01,9.987400055333189641e+00
3.330269431837766803e-01,1.032704461074551539e+01
3.340035617854886230e-01,1.072668916615784340e+01
3.349801803872005657e-01,1.112633372157016964e+01
3.359567989889125639e-01,1.152597827698249411e+01
3.369334175906245066e-01,1.174562283239482241e+01
3.379100361923364493e-01,1.126526738780714787e+01
3.388866547940483920e-01,1.132491194321947248e+01
3.398632733957603347e-01,1.092455649863180156e+01
3.408398919974723329e-01,1.046420105404412659e+01
3.418165105991842756e-01,9.963845609456452479e+00
3.427931292008962183e-01,9.523490164868777086e+00
3.437697478026081610e-01,9.103134720281104819e+00
3.447463664043201592e-01,8.742779275693433050e+00
3.457229850060321019e-01,8.482423831105757372e+00
3.466996036077440446e-01,8.402068386518084964e+00
3.476762222094559873e-01,8.421712941930410423e+00
3.486528408111679300e-01,8.641357497342735172e+00
3.496294594128799282e-01,9.141002052755061058e+00
3.506060780145918709e-01,9.800646608167388862e+00
3.515826966163038136e-01,1.060029116357971546e+01
3.525593152180157563e-01,1.137993571899204248e+01
3.535359338197277546e-01,1.203958027440436851e+01
3.545125524214396973e-01,1.243922482981669297e+01
3.554891710231516400e-01,1.297886938522901978e+01
3.564657896248635827e-01,1.347851394064134567e+01
3.574424082265755254e-01,1.395815849605367198e+01
3.584190268282875236e-01,1.425780305146599858e+01
3.593956454299994663e-01,1.439744760687832503e+01
3.603722640317114090e-01,1.435709216229064999e+01
3.613488826334233517e-01,1.423673671770297844e+01
3.623255012351353499e-01,1.411638127311530333e+01
3.633021198368472926e-01,1.397602582852762865e+01
3.642787384385592353e-01,1.381567038393995439e+01
3.652553570402711780e-01,1.357531493935228184e+01
3.662319756419831207e-01,1.329495949476460837e+01
3.672085942436951189e-01,1.289460405017693567e+01
3.681852128454070616e-01,1.251424860558925900e+01
3.691618314471190043e-01,1.215389316100158545e+01
3.701384500488309470e-01,1.193353771641391248e+01
3.711150686505429452e-01,1.203318227182624156e+01
3.720916872522548879e-01,1.239282682723856688e+01
3.730683058539668306e-01,1.279247138265089134e+01
3.740449244556787733e-01,1.307211593806321837e+01
3.750215430573907716e-01,1.319176049347554525e+01
3.759981616591027143e-01,1.327140504888787120e+01
3.769747802608146570e-01,1.325104960430019752e+01
3.779513988625265997e-01,1.317069415971252155e+01
3.789280174642385424e-01,1.297033871512484815e+01
3.799046360659505406e-01,1.264998327053717375e+01
3.808812546676624833e-01,1.230962782594949978e+01
3.818578732693744260e-01,1.196927238136182758e+01
3.828344918710863687e-01,1.148891693677415304e+01
3.838111104727983669e-01,1.102856149218648163e+01
3.847877290745103096e-01,1.066820604759880453e+01
3.857643476762222523e-01,1.046785060301113113e+01
3.867409662779341950e-01,1.046749515842345879e+01
