# spatial freqs [1/mm], spectrum [a.u.]
0.000000000000000000e+00,3.154725365057439745e+01
9.766186017119550620e-04,3.156612317248940514e+01
1.953237203423910124e-03,3.182499269440442191e+01
2.929855805135865403e-03,3.220386221631942902e+01
3.906474406847820248e-03,3.248273173823444182e+01
4.883093008559775093e-03,3.234160126014943870e+01
5.859711610271730806e-03,3.168047078206445377e+01
6.836330211983685651e-03,3.079934030397946998e+01
7.812948813695640496e-03,2.991820982589447198e+01
8.789567415407595341e-03,2.901707934780949216e+01
9.766186017119550186e-03,2.783594886972449700e+01
1.074280461883150503e-02,2.691481839163950696e+01
1.171942322054346161e-02,2.635368791355453055e+01
1.269604182225541646e-02,2.607255743546954108e+01
1.367266042396737130e-02,2.607142695738455274e+01
1.464927902567932615e-02,2.617029647929955871e+01
1.562589762739128099e-02,2.632916600121456696e+01
1.660251622910323757e-02,2.654803552312956327e+01
1.757913483081519068e-02,2.678690504504458403e+01
1.855575343252714726e-02,2.686577456695959398e+01
1.953237203423910037e-02,2.672464408887460507e+01
2.050899063595105695e-02,2.636351361078961730e+01
2.148560923766301006e-02,2.574238313270462442e+01
2.246222783937496664e-02,2.484125265461964460e+01
2.343884644108692322e-02,2.366012217653464944e+01
2.441546504279887633e-02,2.229899169844966167e+01
2.539208364451083291e-02,2.107786122036467447e+01
2.636870224622278602e-02,1.991673074227968954e+01
2.734532084793474260e-02,1.877560026419468642e+01
2.832193944964669571e-02,1.787446978610969239e+01
2.929855805135865229e-02,1.737333930802470405e+01
3.027517665307060540e-02,1.713220882993972083e+01
3.125179525478256198e-02,1.711107835185473647e+01
3.222841385649451856e-02,1.738994787376973505e+01
3.320503245820647514e-02,1.794881739568474899e+01
3.418165105991842478e-02,1.842768691759976463e+01
3.515826966163038136e-02,1.878655643951477572e+01
3.613488826334233794e-02,1.886542596142978567e+01
3.711150686505429452e-02,1.868429548334480472e+01
3.808812546676624416e-02,1.836316500525980899e+01
3.906474406847820074e-02,1.804203452717481326e+01
4.004136267019015732e-02,1.756090404908982094e+01
4.101798127190211390e-02,1.733977357100483374e+01
4.199459987361407048e-02,1.739864309291984767e+01
4.297121847532602013e-02,1.743751261483485138e+01
4.394783707703797671e-02,1.741638213674986702e+01
4.492445567874993329e-02,1.729525165866487413e+01
4.590107428046188986e-02,1.699412118057988863e+01
4.687769288217384644e-02,1.637299070249489574e+01
4.785431148388579609e-02,1.563186022440991252e+01
4.883093008559775267e-02,1.471072974632492247e+01
4.980754868730970925e-02,1.376959926823992220e+01
5.078416728902166583e-02,1.258846879015494125e+01
5.176078589073361547e-02,1.122733831206993926e+01
5.273740449244557205e-02,9.486207833984956039e+00
5.371402309415752863e-02,7.645077355899964289e+00
5.469064169586948521e-02,5.703946877814978222e+00
5.566726029758144179e-02,3.802816399729998409e+00
5.664387889929339143e-02,2.141685921644999269e+00
5.762049750100534801e-02,7.605554435600154761e-01
5.859711610271730459e-02,-2.805750345249791722e-01
5.957373470442926117e-02,-1.141705512609966888e+00
6.055035330614121081e-02,-1.902835990694946133e+00
6.152697190785316739e-02,-2.383966468779952663e+00
6.250359050956512397e-02,-2.385096946864941003e+00
6.348020911127708055e-02,-2.326227424949927070e+00
6.445682771298903713e-02,-2.087357903034920525e+00
6.543344631470099371e-02,-1.928488381119898065e+00
6.641006491641295029e-02,-1.989618859204888679e+00
6.738668351812489299e-02,-2.550749337289879293e+00
6.836330211983684957e-02,-3.211879815374864222e+00
6.933992072154880615e-02,-3.933010293459851425e+00
7.031653932326076273e-02,-4.874140771544851702e+00
7.129315792497271931e-02,-5.895271249629836063e+00
7.226977652668467589e-02,-6.796401727714844299e+00
7.324639512839663247e-02,-7.537532205799827523e+00
7.422301373010858905e-02,-8.198662683884812452e+00
7.519963233182054563e-02,-8.799793161969809319e+00
7.617625093353248833e-02,-9.380923640054795953e+00
7.715286953524444491e-02,-1.002205411813978486e+01
7.812948813695640149e-02,-1.070318459622476581e+01
7.910610673866835807e-02,-1.146431507430975927e+01
8.008272534038031465e-02,-1.228544555239474079e+01
8.105934394209227123e-02,-1.306657603047973026e+01
8.203596254380422781e-02,-1.394770650856471406e+01
8.301258114551618439e-02,-1.462883698664970922e+01
8.398919974722814097e-02,-1.546996746473471518e+01
8.496581834894008367e-02,-1.659109794281969386e+01
8.594243695065204025e-02,-1.799222842090468788e+01
8.691905555236399683e-02,-1.937335889898967167e+01
8.789567415407595341e-02,-2.087448937707466001e+01
8.887229275578790999e-02,-2.247561985515965688e+01
8.984891135749986657e-02,-2.397675033324464522e+01
9.082552995921182315e-02,-2.539788081132963526e+01
9.180214856092377973e-02,-2.685901128941461735e+01
9.277876716263573631e-02,-2.824014176749960114e+01
9.375538576434769289e-02,-2.960127224558460313e+01
9.473200436605963559e-02,-3.030240272366959431e+01
9.570862296777159217e-02,-3.096353320175457924e+01
9.668524156948354875e-02,-3.148466367983957781e+01
9.766186017119550533e-02,-3.186579415792456160e+01
9.863847877290746191e-02,-3.208692463600954881e+01
9.961509737461941849e-02,-3.194805511409455079e+01
1.005917159763313751e-01,-3.174918559217952208e+01
1.015683345780433317e-01,-3.151031607026452974e+01
1.025449531797552882e-01,-3.151144654834951808e+01
1.035215717814672309e-01,-3.199257702643449619e+01
1.044981903831791875e-01,-3.275370750451947544e+01
1.054748089848911441e-01,-3.357483798260445695e+01
1.064514275866031007e-01,-3.435596846068946064e+01
1.074280461883150573e-01,-3.505709893877446603e+01
1.084046647900270138e-01,-3.549822941685945210e+01
1.093812833917389704e-01,-3.591935989494442794e+01
1.103579019934509270e-01,-3.626049037302941969e+01
1.113345205951628836e-01,-3.638162085111441257e+01
1.123111391968748263e-01,-3.624275132919941456e+01
1.132877577985867829e-01,-3.590388180728439949e+01
1.142643764002987394e-01,-3.536501228536936736e+01
1.152409950020106960e-01,-3.520614276345435911e+01
1.162176136037226526e-01,-3.510727324153935314e+01
1.171942322054346092e-01,-3.492840371962434887e+01
1.181708508071465658e-01,-3.470953419770933834e+01
1.191474694088585223e-01,-3.481066467579432100e+01
1.201240880105704789e-01,-3.511179515387932071e+01
1.211007066122824216e-01,-3.555292563196430677e+01
1.220773252139943782e-01,-3.605405611004929511e+01
1.230539438157063348e-01,-3.651518658813429141e+01
1.240305624174182914e-01,-3.685631706621928316e+01
1.250071810191302479e-01,-3.727744754430425900e+01
1.259837996208421906e-01,-3.767857802238925302e+01
1.269604182225541611e-01,-3.817970850047424136e+01
1.279370368242661038e-01,-3.856083897855922515e+01
1.289136554259780743e-01,-3.884196945664422884e+01
1.298902740276900170e-01,-3.898309993472923196e+01
1.308668926294019874e-01,-3.900423041281420211e+01
1.318435112311139301e-01,-3.890536089089919614e+01
1.328201298328259006e-01,-3.862649136898418334e+01
1.337967484345378433e-01,-3.828762184706916827e+01
1.347733670362497860e-01,-3.800875232515415547e+01
1.357499856379617564e-01,-3.776988280323916314e+01
1.367266042396736991e-01,-3.759101328132414466e+01
1.377032228413856696e-01,-3.757214375940912277e+01
1.386798414430976123e-01,-3.783327423749410201e+01
1.396564600448095828e-01,-3.829440471557909831e+01
1.406330786465215255e-01,-3.877553519366411905e+01
1.416096972482334959e-01,-3.911666567174908238e+01
1.425863158499454386e-01,-3.925779614983408550e+01
1.435629344516573813e-01,-3.903892662791907497e+01
1.445395530533693518e-01,-3.850005710600407127e+01
1.455161716550812945e-01,-3.782118758408905279e+01
1.464927902567932649e-01,-3.712231806217402408e+01
1.474694088585052076e-01,-3.652344854025901810e+01
1.484460274602171781e-01,-3.592457901834401213e+01
1.494226460619291208e-01,-3.550570949642901297e+01
1.503992646636410913e-01,-3.524683997451398199e+01
1.513758832653530340e-01,-3.512797045259897999e+01
1.523525018670649767e-01,-3.508910093068397629e+01
1.533291204687769471e-01,-3.513023140876895667e+01
1.543057390704888898e-01,-3.519136188685394728e+01
1.552823576722008603e-01,-3.525249236493893790e+01
1.562589762739128030e-01,-3.527362284302393647e+01
1.572355948756247734e-01,-3.525475332110891458e+01
1.582122134773367161e-01,-3.513588379919389837e+01
1.591888320790486866e-01,-3.517701427727890717e+01
1.601654506807606293e-01,-3.539814475536389438e+01
1.611420692824725720e-01,-3.577927523344887817e+01
1.621186878841845425e-01,-3.644040571153386310e+01
1.630953064858964852e-01,-3.700153618961886792e+01
1.640719250876084556e-01,-3.748266666770384603e+01
1.650485436893203983e-01,-3.790379714578885029e+01
1.660251622910323688e-01,-3.834492762387383635e+01
1.670017808927443115e-01,-3.858605810195883379e+01
1.679783994944562819e-01,-3.860718858004380394e+01
1.689550180961682246e-01,-3.860831905812879228e+01
1.699316366978801673e-01,-3.852944953621379653e+01
1.709082552995921378e-01,-3.845058001429877237e+01
1.718848739013040805e-01,-3.843171049238375048e+01
1.728614925030160510e-01,-3.835284097046875473e+01
1.738381111047279937e-01,-3.823397144855375274e+01
1.748147297064399641e-01,-3.805510192663873426e+01
1.757913483081519068e-01,-3.805623240472372260e+01
1.767679669098638773e-01,-3.791736288280872458e+01
1.777445855115758200e-01,-3.771849336089369586e+01
1.787212041132877627e-01,-3.747962383897870353e+01
1.796978227149997331e-01,-3.728075431706367482e+01
1.806744413167116758e-01,-3.746188479514866998e+01
1.816510599184236463e-01,-3.792301527323366628e+01
1.826276785201355890e-01,-3.858414575131865121e+01
1.836042971218475595e-01,-3.934527622940363045e+01
1.845809157235595022e-01,-4.010640670748863812e+01
1.855575343252714726e-01,-4.078753718557361907e+01
1.865341529269834153e-01,-4.124866766365861537e+01
1.875107715286953858e-01,-4.136979814174360826e+01
1.884873901304073285e-01,-4.099092861982860114e+01
1.894640087321192712e-01,-4.007205909791357357e+01
1.904406273338312416e-01,-3.889318957599855509e+01
1.914172459355431843e-01,-3.749432005408356616e+01
1.923938645372551548e-01,-3.625545053216854541e+01
1.933704831389670975e-01,-3.535658101025352806e+01
1.943471017406790680e-01,-3.491771148833851868e+01
1.953237203423910107e-01,-3.465884196642351611e+01
1.963003389441029811e-01,-3.459997244450851639e+01
1.972769575458149238e-01,-3.456110292259351269e+01
1.982535761475268665e-01,-3.462223340067850330e+01
1.992301947492388370e-01,-3.482336387876348027e+01
2.002068133509507797e-01,-3.518449435684845383e+01
2.011834319526627501e-01,-3.552562483493344558e+01
2.021600505543746928e-01,-3.586675531301843733e+01
2.031366691560866633e-01,-3.618788579110341885e+01
2.041132877577986060e-01,-3.648901626918841856e+01
2.050899063595105765e-01,-3.667014674727341372e+01
2.060665249612225192e-01,-3.679127722535840661e+01
2.070431435629344619e-01,-3.685240770344339722e+01
2.080197621646464323e-01,-3.683353818152838954e+01
2.089963807663583750e-01,-3.669466865961336310e+01
2.099729993680703455e-01,-3.647579913769835258e+01
2.109496179697822882e-01,-3.625692961578334206e+01
2.119262365714942586e-01,-3.613806009386835427e+01
2.129028551732062013e-01,-3.611919057195333238e+01
2.138794737749181718e-01,-3.622032105003831504e+01
2.148560923766301145e-01,-3.638145152812329997e+01
2.158327109783420572e-01,-3.650258200620829285e+01
2.168093295800540277e-01,-3.662371248429328574e+01
2.177859481817659704e-01,-3.676484296237826044e+01
2.187625667834779408e-01,-3.690597344046327777e+01
2.197391853851898835e-01,-3.704710391854825247e+01
2.207158039869018540e-01,-3.716823439663324535e+01
2.216924225886137967e-01,-3.724936487471824620e+01
2.226690411903257671e-01,-3.735049535280322885e+01
2.236456597920377098e-01,-3.743162583088820128e+01
2.246222783937496525e-01,-3.751275630897320212e+01
2.255988969954616230e-01,-3.761388678705818478e+01
2.265755155971735657e-01,-3.773501726514317767e+01
2.275521341988855362e-01,-3.783614774322816032e+01
2.285287528005974789e-01,-3.791727822131316117e+01
2.295053714023094493e-01,-3.797840869939815178e+01
2.304819900040213920e-01,-3.807953917748314865e+01
2.314586086057333625e-01,-3.814066965556813926e+01
2.324352272074453052e-01,-3.830180013365312419e+01
2.334118458091572479e-01,-3.846293061173810912e+01
2.343884644108692183e-01,-3.864406108982310428e+01
2.353650830125811610e-01,-3.880519156790808921e+01
2.363417016142931315e-01,-3.898632204599308437e+01
2.373183202160050742e-01,-3.924745252407806362e+01
2.382949388177170447e-01,-3.958858300216305537e+01
2.392715574194289874e-01,-3.992971348024804712e+01
2.402481760211409578e-01,-4.029084395833302068e+01
2.412247946228529005e-01,-4.059197443641803460e+01
2.422014132245648432e-01,-4.085310491450301384e+01
2.431780318262768137e-01,-4.111423539258802151e+01
2.441546504279887564e-01,-4.133536587067300871e+01
2.451312690297007268e-01,-4.151649634875797545e+01
2.461078876314126695e-01,-4.139762682684298767e+01
2.470845062331246400e-01,-4.125875730492796123e+01
2.480611248348365827e-01,-4.101988778301294047e+01
2.490377434365485532e-01,-4.070101826109793564e+01
2.500143620382604959e-01,-4.042214873918292284e+01
2.509909806399724386e-01,-4.016327921726792027e+01
2.519675992416843813e-01,-3.996440969535289156e+01
2.529442178433963795e-01,-3.974554017343789525e+01
2.539208364451083222e-01,-3.958667065152288700e+01
2.548974550468202649e-01,-3.950780112960789126e+01
2.558740736485322076e-01,-3.954893160769287164e+01
2.568506922502442058e-01,-3.963006208577787248e+01
2.578273108519561485e-01,-3.977119256386284718e+01
2.588039294536680912e-01,-3.991232304194785030e+01
2.597805480553800339e-01,-3.999345352003282272e+01
2.607571666570919766e-01,-4.001458399811782130e+01
2.617337852588039748e-01,-3.997571447620278917e+01
2.627104038605159175e-01,-3.991684495428780366e+01
2.636870224622278602e-01,-4.009797543237278461e+01
2.646636410639398029e-01,-4.041910591045779455e+01
2.656402596656518011e-01,-4.076023638854275788e+01
2.666168782673637438e-01,-4.114136686662777009e+01
2.675934968690756866e-01,-4.160249734471273797e+01
2.685701154707876293e-01,-4.192362782279774791e+01
2.695467340724995720e-01,-4.194475830088271806e+01
2.705233526742115702e-01,-4.214588877896772345e+01
2.714999712759235129e-01,-4.238701925705269247e+01
2.724765898776354556e-01,-4.258814973513769786e+01
2.734532084793473983e-01,-4.270928021322269075e+01
2.744298270810593965e-01,-4.275041069130767113e+01
2.754064456827713392e-01,-4.277154116939265549e+01
2.763830642844832819e-01,-4.269267164747765975e+01
2.773596828861952246e-01,-4.253380212556265150e+01
2.783363014879071673e-01,-4.211493260364762392e+01
2.793129200896191655e-01,-4.169606308173262477e+01
2.802895386913311082e-01,-4.125719355981761538e+01
2.812661572930430509e-01,-4.075832403790260372e+01
2.822427758947549936e-01,-4.041945451598758865e+01
2.832193944964669918e-01,-4.010058499407258381e+01
2.841960130981789345e-01,-3.978171547215755055e+01
2.851726316998908772e-01,-3.950284595024253775e+01
2.861492503016028199e-01,-3.978397642832754144e+01
2.871258689033147626e-01,-4.020510690641254570e+01
2.881024875050267609e-01,-4.076623738449753631e+01
2.890791061067387036e-01,-4.136736786258251897e+01
2.900557247084506463e-01,-4.200849834066749366e+01
2.910323433101625890e-01,-4.256962881875248428e+01
2.920089619118745872e-01,-4.305075929683749081e+01
2.929855805135865299e-01,-4.331188977492247005e+01
2.939621991152984726e-01,-4.349302025300746521e+01
2.949388177170104153e-01,-4.355415073109245583e+01
2.959154363187223580e-01,-4.353528120917743394e+01
2.968920549204343562e-01,-4.341641168726241773e+01
2.978686735221462989e-01,-4.303754216534742483e+01
2.988452921238582416e-01,-4.257867264343240521e+01
2.998219107255701843e-01,-4.205980312151741174e+01
3.007985293272821825e-01,-4.140093359960240349e+01
3.017751479289941252e-01,-4.060206407768738046e+01
3.027517665307060679e-01,-3.984319455577237790e+01
3.037283851324180106e-01,-3.922432503385736169e+01
3.047050037341299533e-01,-3.878545551194235230e+01
3.056816223358419515e-01,-3.852658599002732132e+01
3.066582409375538942e-01,-3.834771646811233126e+01
3.076348595392658369e-01,-3.836884694619730141e+01
3.086114781409777796e-01,-3.858997742428230282e+01
3.095880967426897779e-01,-3.903110790236728889e+01
3.105647153444017206e-01,-3.971223838045228405e+01
3.115413339461136633e-01,-4.049336885853727352e+01
3.125179525478256060e-01,-4.139449933662226755e+01
3.134945711495375487e-01,-4.223562981470725930e+01
3.144711897512495469e-01,-4.301676029279224878e+01
3.154478083529614896e-01,-4.343789077087722461e+01
3.164244269546734323e-01,-4.347902124896223341e+01
3.174010455563853750e-01,-4.326015172704722289e+01
3.183776641580973732e-01,-4.308128220513220441e+01
3.193542827598093159e-01,-4.296241268321718820e+01
3.203309013615212586e-01,-4.278354316130218393e+01
3.213075199632332013e-01,-4.276467363938719046e+01
3.222841385649451440e-01,-4.296580411747216743e+01
3.232607571666571422e-01,-4.322693459555714668e+01
3.242373757683690849e-01,-4.350806507364213616e+01
3.252139943700810276e-01,-4.366919555172712109e+01
3.261906129717929703e-01,-4.361032602981210715e+01
3.271672315735049685e-01,-4.319145650789710800e+01
3.281438501752169112e-01,-4.237258698598210316e+01
3.291204687769288539e-01,-4.153371746406708809e+01
3.300970873786407966e-01,-4.073484794215206506e+01
3.310737059803527393e-01,-4.029597842023706988e+01
3.320503245820647376e-01,-4.007710889832205936e+01
3.330269431837766803e-01,-3.997823937640705338e+01
3.340035617854886230e-01,-4.001936985449203377e+01
3.349801803872005657e-01,-4.018050033257701870e+01
3.359567989889125639e-01,-4.032163081066202182e+01
3.369334175906245066e-01,-4.036276128874700220e+01
3.379100361923364493e-01,-4.036389176683199054e+01
3.388866547940483920e-01,-4.032502224491698684e+01
3.398632733957603347e-01,-4.010615272300197631e+01
3.408398919974723329e-01,-3.998728320108696010e+01
3.418165105991842756e-01,-3.994841367917195640e+01
3.427931292008962183e-01,-4.004954415725695327e+01
3.437697478026081610e-01,-4.027067463534194047e+01
3.447463664043201592e-01,-4.099180511342692768e+01
3.457229850060321019e-01,-4.179293559151192738e+01
3.466996036077440446e-01,-4.253406606959689640e+01
3.476762222094559873e-01,-4.333519654768189611e+01
3.486528408111679300e-01,-4.393632702576687876e+01
3.496294594128799282e-01,-4.435745750385185460e+01
3.506060780145918709e-01,-4.447858798193684748e+01
3.515826966163038136e-01,-4.419971846002183469e+01
3.525593152180157563e-01,-4.362084893810683894e+01
3.535359338197277546e-01,-4.264197941619180909e+01
3.545125524214396973e-01,-4.144310989427682301e+01
3.554891710231516400e-01,-4.032424037236180681e+01
3.564657896248635827e-01,-3.924537085044681106e+01
3.574424082265755254e-01,-3.830650132853180168e+01
3.584190268282875236e-01,-3.776763180661676955e+01
3.593956454299994663e-01,-3.754876228470175903e+01
3.603722640317114090e-01,-3.764989276278674168e+01
3.613488826334233517e-01,-3.813102324087174821e+01
3.623255012351353499e-01,-3.875215371895674110e+01
3.633021198368472926e-01,-3.913328419704172489e+01
3.642787384385592353e-01,-3.911441467512670300e+01
3.652553570402711780e-01,-3.863554515321171579e+01
3.662319756419831207e-01,-3.765667563129668594e+01
3.672085942436951189e-01,-3.639780610938168337e+01
3.681852128454070616e-01,-3.507893658746667853e+01
3.691618314471190043e-01,-3.374006706555166346e+01
3.701384500488309470e-01,-3.282119754363666431e+01
3.711150686505429452e-01,-3.262232802172163559e+01
3.720916872522548879e-01,-3.310345849980661370e+01
3.730683058539668306e-01,-3.398458897789162592e+01
3.740449244556787733e-01,-3.510571945597659038e+01
3.750215430573907716e-01,-3.638684993406157986e+01
3.759981616591027143e-01,-3.758798041214659946e+01
3.769747802608146570e-01,-3.848911089023159349e+01
3.779513988625265997e-01,-3.891024136831656932e+01
3.789280174642385424e-01,-3.897137184640155994e+01
3.799046360659505406e-01,-3.891250232448654600e+01
3.808812546676624833e-01,-3.889363280257152411e+01
3.818578732693744260e-01,-3.889476328065651245e+01
