# spatial freqs [1/mm], spectrum [a.u.]
0.000000000000000000e+00,-2.519537642880578243e+00
9.766186017119550620e-04,-2.317753308584764582e+00
1.953237203423910124e-03,-2.295968974288950637e+00
2.929855805135865403e-03,-2.594184639993136532e+00
3.906474406847820248e-03,-2.832400305697322818e+00
4.883093008559775093e-03,-2.870615971401508926e+00
5.859711610271730806e-03,-2.868831637105695886e+00
6.836330211983685651e-03,-2.907047302809881550e+00
7.812948813695640496e-03,-2.985262968514067694e+00
8.789567415407595341e-03,-3.003478634218253784e+00
9.766186017119550186e-03,-3.181694299922440017e+00
1.074280461883150503e-02,-3.319909965626626214e+00
1.171942322054346161e-02,-3.538125631330812038e+00
1.269604182225541646e-02,-4.096341297034998163e+00
1.367266042396737130e-02,-5.214556962739184343e+00
1.464927902567932615e-02,-6.772772628443370913e+00
1.562589762739128099e-02,-7.950988294147556701e+00
1.660251622910323757e-02,-8.549203959851743306e+00
1.757913483081519068e-02,-8.387419625555930125e+00
1.855575343252714726e-02,-7.385635291260115309e+00
1.953237203423910037e-02,-6.063850956964301986e+00
2.050899063595105695e-02,-4.202066622668487739e+00
2.148560923766301006e-02,-2.540282288372673669e+00
2.246222783937496664e-02,-7.984979540768599726e-01
2.343884644108692322e-02,5.832863802189538482e-01
2.441546504279887633e-02,1.565070714514768202e+00
2.539208364451083291e-02,2.026855048810582094e+00
2.636870224622278602e-02,2.008639383106395560e+00
2.734532084793474260e-02,1.650423717402210055e+00
2.832193944964669571e-02,9.522080516980229170e-01
2.929855805135865229e-02,-6.007614006163146045e-03
3.027517665307060540e-02,-7.042232797103493702e-01
3.125179525478256198e-02,-1.402438945414535176e+00
3.222841385649451856e-02,-2.240654611118721551e+00
3.320503245820647514e-02,-3.218870276822907162e+00
3.418165105991842478e-02,-4.297085942527093749e+00
3.515826966163038136e-02,-5.295301608231279822e+00
3.613488826334233794e-02,-6.253517273935465859e+00
3.711150686505429452e-02,-6.871732939639652038e+00
3.808812546676624416e-02,-7.329948605343838075e+00
3.906474406847820074e-02,-7.428164271048023792e+00
4.004136267019015732e-02,-6.866379936752211144e+00
4.101798127190211390e-02,-5.504595602456397785e+00
4.199459987361407048e-02,-3.702811268160582703e+00
4.297121847532602013e-02,-1.901026933864768953e+00
4.394783707703797671e-02,-3.992425995689550255e-01
4.492445567874993329e-02,7.825417347268586177e-01
4.590107428046188986e-02,1.664326069022672439e+00
4.687769288217384644e-02,1.766110403318486899e+00
4.785431148388579609e-02,1.087894737614300222e+00
4.883093008559775267e-02,-5.032092808988555821e-02
4.980754868730970925e-02,-1.648536593794071692e+00
5.078416728902166583e-02,-3.526752259498257658e+00
5.176078589073361547e-02,-5.624967925202445151e+00
5.273740449244557205e-02,-7.663183590906631260e+00
5.371402309415752863e-02,-9.801399256610817901e+00
5.469064169586948521e-02,-1.171961492231500301e+01
5.566726029758144179e-02,-1.345783058801918841e+01
5.664387889929339143e-02,-1.477604625372337566e+01
5.762049750100534801e-02,-1.573426191942755992e+01
5.859711610271730459e-02,-1.641247758513174659e+01
5.957373470442926117e-02,-1.725069325083593341e+01
6.055035330614121081e-02,-1.840890891654012052e+01
6.152697190785316739e-02,-1.932712458224430563e+01
6.250359050956512397e-02,-1.976534024794849387e+01
6.348020911127708055e-02,-1.996355591365267657e+01
6.445682771298903713e-02,-2.002177157935686580e+01
6.543344631470099371e-02,-1.953998724506104878e+01
6.641006491641295029e-02,-1.873820291076523858e+01
6.738668351812489299e-02,-1.773641857646942555e+01
6.836330211983684957e-02,-1.667463424217361023e+01
6.933992072154880615e-02,-1.549284990787779570e+01
7.031653932326076273e-02,-1.461106557358198188e+01
7.129315792497271931e-02,-1.374928123928616763e+01
7.226977652668467589e-02,-1.302749690499035395e+01
7.324639512839663247e-02,-1.250571257069453956e+01
7.422301373010858905e-02,-1.246392823639872560e+01
7.519963233182054563e-02,-1.272214390210291235e+01
7.617625093353248833e-02,-1.292035956780709860e+01
7.715286953524444491e-02,-1.301857523351128521e+01
7.812948813695640149e-02,-1.301679089921547039e+01
7.910610673866835807e-02,-1.307500656491965785e+01
8.008272534038031465e-02,-1.329322223062384367e+01
8.105934394209227123e-02,-1.339143789632802850e+01
8.203596254380422781e-02,-1.334965356203221454e+01
8.301258114551618439e-02,-1.344786922773640114e+01
8.398919974722814097e-02,-1.350608489344058682e+01
8.496581834894008367e-02,-1.362430055914477478e+01
8.594243695065204025e-02,-1.384251622484895883e+01
8.691905555236399683e-02,-1.418073189055314565e+01
8.789567415407595341e-02,-1.467894755625733083e+01
8.887229275578790999e-02,-1.525716322196151786e+01
8.984891135749986657e-02,-1.571537888766570390e+01
9.082552995921182315e-02,-1.601359455336989157e+01
9.180214856092377973e-02,-1.603181021907407811e+01
9.277876716263573631e-02,-1.579002588477826308e+01
9.375538576434769289e-02,-1.524824155048244734e+01
9.473200436605963559e-02,-1.474645721618663430e+01
9.570862296777159217e-02,-1.436467288189082225e+01
9.668524156948354875e-02,-1.408288854759500630e+01
9.766186017119550533e-02,-1.368110421329919291e+01
9.863847877290746191e-02,-1.317931987900337987e+01
9.961509737461941849e-02,-1.263753554470756590e+01
1.005917159763313751e-01,-1.225575121041175208e+01
1.015683345780433317e-01,-1.195396687611593833e+01
1.025449531797552882e-01,-1.163218254182012501e+01
1.035215717814672309e-01,-1.133039820752431126e+01
1.044981903831791875e-01,-1.102861387322849751e+01
1.054748089848911441e-01,-1.074682953893268333e+01
1.064514275866031007e-01,-1.042504520463687001e+01
1.074280461883150573e-01,-1.000326087034105527e+01
1.084046647900270138e-01,-9.361476536045241659e+00
1.093812833917389704e-01,-8.879692201749426417e+00
1.103579019934509270e-01,-8.497907867453614372e+00
1.113345205951628836e-01,-8.196123533157798846e+00
1.123111391968748263e-01,-8.174339198861986233e+00
1.132877577985867829e-01,-8.452554864566172554e+00
1.142643764002987394e-01,-8.770770530270358023e+00
1.152409950020106960e-01,-8.948986195974544700e+00
1.162176136037226526e-01,-8.907201861678730737e+00
1.171942322054346092e-01,-8.845417527382917200e+00
1.181708508071465658e-01,-8.783633193087101887e+00
1.191474694088585223e-01,-8.781848858791288848e+00
1.201240880105704789e-01,-8.900064524495475027e+00
1.211007066122824216e-01,-9.078280190199659927e+00
1.220773252139943782e-01,-9.356495855903848025e+00
1.230539438157063348e-01,-9.674711521608033493e+00
1.240305624174182914e-01,-1.009292718731222038e+01
1.250071810191302479e-01,-1.051114285301640550e+01
1.259837996208421906e-01,-1.090935851872059104e+01
1.269604182225541611e-01,-1.124757418442477785e+01
1.279370368242661038e-01,-1.140578985012896496e+01
1.289136554259780743e-01,-1.144400551583315107e+01
1.298902740276900170e-01,-1.128222118153733611e+01
1.308668926294019874e-01,-1.052043684724152328e+01
1.318435112311139301e-01,-9.718652512945709532e+00
1.328201298328259006e-01,-9.076868178649894148e+00
1.337967484345378433e-01,-8.495083844354081037e+00
1.347733670362497860e-01,-8.233299510058266435e+00
1.357499856379617564e-01,-8.311515175762453467e+00
1.367266042396736991e-01,-8.749730841466639930e+00
1.377032228413856696e-01,-9.447946507170826180e+00
1.386798414430976123e-01,-1.020616217287501115e+01
1.396564600448095828e-01,-1.114437783857919761e+01
1.406330786465215255e-01,-1.194259350428338351e+01
1.416096972482334959e-01,-1.266080916998756933e+01
1.425863158499454386e-01,-1.315902483569175629e+01
1.435629344516573813e-01,-1.327724050139594247e+01
1.445395530533693518e-01,-1.315545616710012666e+01
1.455161716550812945e-01,-1.273367183280431547e+01
1.464927902567932649e-01,-1.209188749850850186e+01
1.474694088585052076e-01,-1.137010316421268641e+01
1.484460274602171781e-01,-1.112831882991687316e+01
1.494226460619291208e-01,-1.116653449562105926e+01
1.503992646636410913e-01,-1.142475016132524601e+01
1.513758832653530340e-01,-1.210296582702943269e+01
1.523525018670649767e-01,-1.308118149273361830e+01
1.533291204687769471e-01,-1.415939715843780533e+01
1.543057390704888898e-01,-1.565761282414199052e+01
1.552823576722008603e-01,-1.751582848984617513e+01
1.562589762739128030e-01,-1.945404415555036337e+01
1.572355948756247734e-01,-2.165225982125454962e+01
1.582122134773367161e-01,-2.349047548695873644e+01
1.591888320790486866e-01,-2.490869115266291800e+01
1.601654506807606293e-01,-2.584690681836710624e+01
1.611420692824725720e-01,-2.646512248407129420e+01
1.621186878841845425e-01,-2.670333814977547959e+01
1.630953064858964852e-01,-2.636155381547966670e+01
1.640719250876084556e-01,-2.609976948118385209e+01
1.650485436893203983e-01,-2.567798514688803735e+01
1.660251622910323688e-01,-2.517620081259222431e+01
1.670017808927443115e-01,-2.467441647829640772e+01
1.679783994944562819e-01,-2.457263214400059326e+01
1.689550180961682246e-01,-2.483084780970478178e+01
1.699316366978801673e-01,-2.566906347540896860e+01
1.709082552995921378e-01,-2.676727914111315698e+01
1.718848739013040805e-01,-2.780549480681734309e+01
1.728614925030160510e-01,-2.868371047252152550e+01
1.738381111047279937e-01,-2.926192613822571431e+01
1.748147297064399641e-01,-2.974014180392990170e+01
1.757913483081519068e-01,-2.989835746963408525e+01
1.767679669098638773e-01,-2.959657313533827150e+01
1.777445855115758200e-01,-2.893478880104245832e+01
1.787212041132877627e-01,-2.797300446674664443e+01
1.796978227149997331e-01,-2.719122013245083025e+01
1.806744413167116758e-01,-2.640943579815501607e+01
1.816510599184236463e-01,-2.572765146385920332e+01
1.826276785201355890e-01,-2.518586712956338758e+01
1.836042971218475595e-01,-2.488408279526757383e+01
1.845809157235595022e-01,-2.456229846097176051e+01
1.855575343252714726e-01,-2.418051412667594491e+01
1.865341529269834153e-01,-2.355872979238013443e+01
1.875107715286953858e-01,-2.295694545808431997e+01
1.884873901304073285e-01,-2.231516112378850636e+01
1.894640087321192712e-01,-2.165337678949268962e+01
1.904406273338312416e-01,-2.091159245519687815e+01
1.914172459355431843e-01,-2.032980812090106326e+01
1.923938645372551548e-01,-1.996802378660525079e+01
1.933704831389670975e-01,-2.032623945230943718e+01
1.943471017406790680e-01,-2.136445511801361974e+01
1.953237203423910107e-01,-2.268267078371780698e+01
1.963003389441029811e-01,-2.398088644942199466e+01
1.972769575458149238e-01,-2.511910211512618218e+01
1.982535761475268665e-01,-2.607731778083036644e+01
1.992301947492388370e-01,-2.659553344653455298e+01
2.002068133509507797e-01,-2.669374911223874136e+01
2.011834319526627501e-01,-2.647196477794292235e+01
2.021600505543746928e-01,-2.593018044364711017e+01
2.031366691560866633e-01,-2.526839610935129699e+01
2.041132877577986060e-01,-2.432661177505548267e+01
2.050899063595105765e-01,-2.340482744075967148e+01
2.060665249612225192e-01,-2.262304310646385375e+01
2.070431435629344619e-01,-2.206125877216804199e+01
2.080197621646464323e-01,-2.151947443787222980e+01
2.089963807663583750e-01,-2.099769010357641363e+01
2.099729993680703455e-01,-2.025590576928060216e+01
2.109496179697822882e-01,-1.927412143498478514e+01
2.119262365714942586e-01,-1.803233710068897011e+01
2.129028551732062013e-01,-1.699055276639315792e+01
2.138794737749181718e-01,-1.592876843209734439e+01
2.148560923766301145e-01,-1.500698409780153142e+01
2.158327109783420572e-01,-1.412519976350571760e+01
2.168093295800540277e-01,-1.328341542920990292e+01
2.177859481817659704e-01,-1.262163109491408974e+01
2.187625667834779408e-01,-1.203984676061827486e+01
2.197391853851898835e-01,-1.135806242632246210e+01
2.207158039869018540e-01,-1.091627809202664778e+01
2.216924225886137967e-01,-1.047449375773083347e+01
2.226690411903257671e-01,-1.013270942343502057e+01
2.236456597920377098e-01,-1.011092508913920618e+01
2.246222783937496525e-01,-9.989140754843392145e+00
2.255988969954616230e-01,-9.927356420547578608e+00
2.265755155971735657e-01,-9.985572086251764290e+00
2.275521341988855362e-01,-1.016378775195595097e+01
2.285287528005974789e-01,-1.038200341766013679e+01
2.295053714023094493e-01,-1.064021908336432354e+01
2.304819900040213920e-01,-1.073843474906851014e+01
2.314586086057333625e-01,-1.061665041477269611e+01
2.324352272074453052e-01,-1.041486608047688200e+01
2.334118458091572479e-01,-1.005308174618106776e+01
2.343884644108692183e-01,-9.531297411885255144e+00
2.353650830125811610e-01,-8.889513077589439760e+00
2.363417016142931315e-01,-8.207728743293625229e+00
2.373183202160050742e-01,-7.545944408997812047e+00
2.382949388177170447e-01,-6.984160074701998511e+00
2.392715574194289874e-01,-6.402375740406184512e+00
2.402481760211409578e-01,-5.880591406110371011e+00
2.412247946228529005e-01,-5.378807071814557084e+00
2.422014132245648432e-01,-4.797022737518743085e+00
2.431780318262768137e-01,-4.195238403222929513e+00
2.441546504279887564e-01,-3.653454068927115106e+00
2.451312690297007268e-01,-3.111669734631301143e+00
2.461078876314126695e-01,-2.529885400335487144e+00
2.470845062331246400e-01,-1.928101066039673572e+00
2.480611248348365827e-01,-1.386316731743859609e+00
2.490377434365485532e-01,-8.045323974480456108e-01
2.500143620382604959e-01,-4.427480631522313637e-01
2.509909806399724386e-01,-8.096372885641892059e-02
2.519675992416843813e-01,2.208206054393957174e-01
2.529442178433963795e-01,3.826049397352089265e-01
2.539208364451083222e-01,4.443892740310233513e-01
2.548974550468202649e-01,4.861736083268373143e-01
2.558740736485322076e-01,5.479579426226508510e-01
2.568506922502442058e-01,6.497422769184653113e-01
2.578273108519561485e-01,7.715266112142793453e-01
2.588039294536680912e-01,9.533109455100929885e-01
2.597805480553800339e-01,9.550952798059069160e-01
2.607571666570919766e-01,9.568796141017208434e-01
2.617337852588039748e-01,1.038663948397534842e+00
2.627104038605159175e-01,1.480448282693348272e+00
2.636870224622278602e-01,2.182232616989161489e+00
2.646636410639398029e-01,2.904016951284975168e+00
2.656402596656518011e-01,3.365801285580789060e+00
2.666168782673637438e-01,3.567585619876604053e+00
2.675934968690756866e-01,3.369369954172416914e+00
2.685701154707876293e-01,2.991154288468230948e+00
2.695467340724995720e-01,2.492938622764044876e+00
2.705233526742115702e-01,1.934722957059859194e+00
2.714999712759235129e-01,1.416507291355672660e+00
2.724765898776354556e-01,9.182916256514865871e-01
2.734532084793473983e-01,5.200759599473010475e-01
2.744298270810593965e-01,1.618602942431137393e-01
2.754064456827713392e-01,1.636446285389285549e-01
2.763830642844832819e-01,4.654289628347414443e-01
2.773596828861952246e-01,1.047213297130555443e+00
2.783363014879071673e-01,1.968997631426369299e+00
2.793129200896191655e-01,2.950781965722183653e+00
2.802895386913311082e-01,3.992566300017996728e+00
2.812661572930430509e-01,4.814350634313810495e+00
2.822427758947549936e-01,5.436134968609625417e+00
2.832193944964669918e-01,5.897919302905438421e+00
2.841960130981789345e-01,6.439703637201253272e+00
2.851726316998908772e-01,6.981487971497065459e+00
2.861492503016028199e-01,7.483272305792880275e+00
2.871258689033147626e-01,7.945056640088694166e+00
2.881024875050267609e-01,8.386840974384508485e+00
2.890791061067387036e-01,8.828625308680321027e+00
2.900557247084506463e-01,9.350409642976135416e+00
2.910323433101625890e-01,9.992193977271949024e+00
2.920089619118745872e-01,1.073397831156776405e+01
2.929855805135865299e-01,1.153576264586357780e+01
2.939621991152984726e-01,1.249754698015939169e+01
2.949388177170104153e-01,1.351933131445520608e+01
2.959154363187223580e-01,1.474111564875101976e+01
2.968920549204343562e-01,1.590289998304683294e+01
2.978686735221462989e-01,1.686468431734264684e+01
2.988452921238582416e-01,1.752646865163846002e+01
2.998219107255701843e-01,1.808825298593427533e+01
3.007985293272821825e-01,1.863003732023008752e+01
3.017751479289941252e-01,1.905182165452590226e+01
3.027517665307060679e-01,1.937360598882171558e+01
3.037283851324180106e-01,1.969539032311752891e+01
3.047050037341299533e-01,1.993717465741334394e+01
3.056816223358419515e-01,2.019895899170915854e+01
3.066582409375538942e-01,2.056074332600497101e+01
3.076348595392658369e-01,2.104252766030078448e+01
3.086114781409777796e-01,2.162431199459659936e+01
3.095880967426897779e-01,2.216609632889241155e+01
3.105647153444017206e-01,2.270788066318822729e+01
3.115413339461136633e-01,2.322966499748403990e+01
3.125179525478256060e-01,2.367144933177985422e+01
3.134945711495375487e-01,2.397323366607566797e+01
3.144711897512495469e-01,2.403501800037148328e+01
3.154478083529614896e-01,2.407680233466729547e+01
3.164244269546734323e-01,2.403858666896311291e+01
3.174010455563853750e-01,2.400037100325892325e+01
3.183776641580973732e-01,2.394215533755473757e+01
3.193542827598093159e-01,2.390393967185055146e+01
3.203309013615212586e-01,2.382572400614636621e+01
3.213075199632332013e-01,2.378750834044218010e+01
3.222841385649451440e-01,2.382929267473799229e+01
3.232607571666571422e-01,2.385107700903380490e+01
3.242373757683690849e-01,2.371286134332962092e+01
3.252139943700810276e-01,2.357464567762543339e+01
3.261906129717929703e-01,2.347643001192124856e+01
3.271672315735049685e-01,2.347821434621706160e+01
3.281438501752169112e-01,2.355999868051287649e+01
3.291204687769288539e-01,2.372178301480869322e+01
3.300970873786407966e-01,2.442356734910450555e+01
3.310737059803527393e-01,2.492535168340031859e+01
3.320503245820647376e-01,2.528713601769613106e+01
3.330269431837766803e-01,2.552892035199194254e+01
3.340035617854886230e-01,2.553070468628775558e+01
3.349801803872005657e-01,2.527248902058357416e+01
3.359567989889125639e-01,2.473427335487938805e+01
3.369334175906245066e-01,2.379605768917519981e+01
3.379100361923364493e-01,2.249784202347101569e+01
3.388866547940483920e-01,2.089962635776683086e+01
3.398632733957603347e-01,1.922141069206264063e+01
3.408398919974723329e-01,1.760319502635845623e+01
3.418165105991842756e-01,1.650497936065426785e+01
3.427931292008962183e-01,1.564676369495008501e+01
3.437697478026081610e-01,1.518854802924589720e+01
3.447463664043201592e-01,1.507033236354170924e+01
3.457229850060321019e-01,1.541211669783752569e+01
3.466996036077440446e-01,1.557390103213333710e+01
3.476762222094559873e-01,1.569568536642915291e+01
3.486528408111679300e-01,1.581746970072496694e+01
3.496294594128799282e-01,1.595925403502078055e+01
3.506060780145918709e-01,1.604103836931659544e+01
3.515826966163038136e-01,1.600282270361240933e+01
3.525593152180157563e-01,1.572460703790822123e+01
3.535359338197277546e-01,1.522639137220403427e+01
3.545125524214396973e-01,1.452817570649984980e+01
3.554891710231516400e-01,1.358996004079566156e+01
3.564657896248635827e-01,1.245174437509147936e+01
3.574424082265755254e-01,1.123352870938729176e+01
3.584190268282875236e-01,9.735313043683106571e+00
3.593956454299994663e-01,8.437097377978918900e+00
3.603722640317114090e-01,7.138881712274732116e+00
3.613488826334233517e-01,5.860666046570546683e+00
3.623255012351353499e-01,4.702450380866360469e+00
3.633021198368472926e-01,3.764234715162175338e+00
3.642787384385592353e-01,3.046019049457988626e+00
3.652553570402711780e-01,3.047803383753802553e+00
3.662319756419831207e-01,3.249587718049616658e+00
3.672085942436951189e-01,3.671372052345431403e+00
3.681852128454070616e-01,4.193156386641243571e+00
3.691618314471190043e-01,4.734940720937056646e+00
3.701384500488309470e-01,5.176725055232871853e+00
3.711150686505429452e-01,5.458509389528685141e+00
3.720916872522548879e-01,5.660293723824498358e+00
3.730683058539668306e-01,5.862078058120313351e+00
3.740449244556787733e-01,6.083862392416126141e+00
3.750215430573907716e-01,6.285646726711941135e+00
3.759981616591027143e-01,6.527431061007755275e+00
3.769747802608146570e-01,6.869215395303569061e+00
3.779513988625265997e-01,7.310999729599382491e+00
3.789280174642385424e-01,7.792784063895196844e+00
3.799046360659505406e-01,8.434568398191011340e+00
3.808812546676624833e-01,9.336352732486822958e+00
3.818578732693744260e-01,1.033813706678263600e+01
3.828344918710863687e-01,1.107992140107845103e+01
3.838111104727983669e-01,1.172170573537426463e+01
