# spatial freqs [1/mm], spectrum [a.u.]
0.000000000000000000e+00,-9.985333437128030010e-02
9.766186017119550620e-04,-2.374570673155370626e-01
1.953237203423910124e-03,-5.950608002597926882e-01
2.929855805135865403e-03,-9.926645332040474612e-01
3.906474406847820248e-03,-1.670268266148303482e+00
4.883093008559775093e-03,-2.687871999092562803e+00
5.859711610271730806e-03,-4.265475732036817291e+00
6.836330211983685651e-03,-6.223079464981074338e+00
7.812948813695640496e-03,-8.760683197925329679e+00
8.789567415407595341e-03,-1.149828693086958609e+01
9.766186017119550186e-03,-1.465589066381384242e+01
1.074280461883150503e-02,-1.765349439675809862e+01
1.171942322054346161e-02,-2.073109812970235311e+01
1.269604182225541646e-02,-2.328870186264660802e+01
1.367266042396737130e-02,-2.560630559559086450e+01
1.464927902567932615e-02,-2.746390932853512012e+01
1.562589762739128099e-02,-2.928151306147937660e+01
1.660251622910323757e-02,-3.093911679442363294e+01
1.757913483081519068e-02,-3.243672052736788913e+01
1.855575343252714726e-02,-3.347432426031215158e+01
1.953237203423910037e-02,-3.435192799325640323e+01
2.050899063595105695e-02,-3.486953172620066255e+01
2.148560923766301006e-02,-3.492713545914491391e+01
2.246222783937496664e-02,-3.480473919208917266e+01
2.343884644108692322e-02,-3.480234292503342886e+01
2.441546504279887633e-02,-3.487994665797769045e+01
2.539208364451083291e-02,-3.527755039092194522e+01
2.636870224622278602e-02,-3.583515412386619658e+01
2.734532084793474260e-02,-3.655275785681045164e+01
2.832193944964669571e-02,-3.767036158975471238e+01
2.929855805135865229e-02,-3.920796532269896773e+01
3.027517665307060540e-02,-4.086556905564322761e+01
3.125179525478256198e-02,-4.296317278858747812e+01
3.222841385649451856e-02,-4.502077652153173659e+01
3.320503245820647514e-02,-4.695838025447599051e+01
3.418165105991842478e-02,-4.849598398742025296e+01
3.515826966163038136e-02,-4.987358772036450461e+01
3.613488826334233794e-02,-5.097119145330876222e+01
3.711150686505429452e-02,-5.188879518625301301e+01
3.808812546676624416e-02,-5.240639891919727233e+01
3.906474406847820074e-02,-5.264400265214153052e+01
4.004136267019015732e-02,-5.280160638508578330e+01
4.101798127190211390e-02,-5.299921011803004234e+01
4.199459987361407048e-02,-5.311681385097430308e+01
4.297121847532602013e-02,-5.317441758391855444e+01
4.394783707703797671e-02,-5.319202131686281376e+01
4.492445567874993329e-02,-5.310962504980707166e+01
4.590107428046188986e-02,-5.292722878275132103e+01
4.687769288217384644e-02,-5.270483251569557837e+01
4.785431148388579609e-02,-5.256243624863983399e+01
4.883093008559775267e-02,-5.214003998158408848e+01
4.980754868730970925e-02,-5.167764371452835093e+01
5.078416728902166583e-02,-5.111524744747260485e+01
5.176078589073361547e-02,-5.037285118041685905e+01
5.273740449244557205e-02,-4.971045491336111155e+01
5.371402309415752863e-02,-4.912805864630536945e+01
5.469064169586948521e-02,-4.860566237924962962e+01
5.566726029758144179e-02,-4.822326611219389036e+01
5.664387889929339143e-02,-4.784086984513814400e+01
5.762049750100534801e-02,-4.757847357808240218e+01
5.859711610271730459e-02,-4.731607731102665326e+01
5.957373470442926117e-02,-4.705368104397091855e+01
6.055035330614121081e-02,-4.683128477691516878e+01
6.152697190785316739e-02,-4.672888850985942355e+01
6.250359050956512397e-02,-4.676649224280368600e+01
6.348020911127708055e-02,-4.694409597574793480e+01
6.445682771298903713e-02,-4.722169970869219213e+01
6.543344631470099371e-02,-4.747930344163645344e+01
6.641006491641295029e-02,-4.763690717458070623e+01
6.738668351812489299e-02,-4.771451090752496071e+01
6.836330211983684957e-02,-4.775211464046922316e+01
6.933992072154880615e-02,-4.774971837341347936e+01
7.031653932326076273e-02,-4.768732210635773328e+01
7.129315792497271931e-02,-4.760492583930199118e+01
7.226977652668467589e-02,-4.754252957224624510e+01
7.324639512839663247e-02,-4.758013330519050044e+01
7.422301373010858905e-02,-4.775773703813475635e+01
7.519963233182054563e-02,-4.805534077107900970e+01
7.617625093353248833e-02,-4.845294450402327158e+01
7.715286953524444491e-02,-4.883054823696752322e+01
7.812948813695640149e-02,-4.906815196991178141e+01
7.910610673866835807e-02,-4.912575570285603277e+01
8.008272534038031465e-02,-4.906335943580029380e+01
8.105934394209227123e-02,-4.874096316874454971e+01
8.203596254380422781e-02,-4.833856690168880732e+01
8.301258114551618439e-02,-4.795617063463306096e+01
8.398919974722814097e-02,-4.763377436757731687e+01
8.496581834894008367e-02,-4.747137810052156937e+01
8.594243695065204025e-02,-4.736898183346583124e+01
8.691905555236399683e-02,-4.742658556641008971e+01
8.789567415407595341e-02,-4.754418929935434335e+01
8.887229275578790999e-02,-4.766179303229859698e+01
8.984891135749986657e-02,-4.785939676524285602e+01
9.082552995921182315e-02,-4.809700049818710710e+01
9.180214856092377973e-02,-4.857460423113136727e+01
9.277876716263573631e-02,-4.895220796407562602e+01
9.375538576434769289e-02,-4.924981169701988648e+01
9.473200436605963559e-02,-4.942741542996413528e+01
9.570862296777159217e-02,-4.950501916290839688e+01
9.668524156948354875e-02,-4.954262289585265222e+01
9.766186017119550533e-02,-4.956022662879690444e+01
9.863847877290746191e-02,-4.955783036174116063e+01
9.961509737461941849e-02,-4.957543409468541995e+01
1.005917159763313751e-01,-4.973303782762967984e+01
1.015683345780433317e-01,-4.993064156057393177e+01
1.025449531797552882e-01,-5.016824529351818995e+01
1.035215717814672309e-01,-5.070584902646244529e+01
1.044981903831791875e-01,-5.122345275940670462e+01
1.054748089848911441e-01,-5.184105649235095825e+01
1.064514275866031007e-01,-5.223866022529521302e+01
1.074280461883150573e-01,-5.265626395823947092e+01
1.084046647900270138e-01,-5.297386769118372740e+01
1.093812833917389704e-01,-5.331147142412797990e+01
1.103579019934509270e-01,-5.346907515707223979e+01
1.113345205951628836e-01,-5.348667889001649911e+01
1.123111391968748263e-01,-5.330428262296074848e+01
1.132877577985867829e-01,-5.302188635590500354e+01
1.142643764002987394e-01,-5.261949008884926826e+01
1.152409950020106960e-01,-5.205709382179352218e+01
1.162176136037226526e-01,-5.143469755473777383e+01
1.171942322054346092e-01,-5.075230128768203741e+01
1.181708508071465658e-01,-5.022990502062628337e+01
1.191474694088585223e-01,-5.004750875357054696e+01
1.201240880105704789e-01,-5.026511248651480201e+01
1.211007066122824216e-01,-5.076271621945905821e+01
1.220773252139943782e-01,-5.134031995240331270e+01
1.230539438157063348e-01,-5.193792368534757031e+01
1.240305624174182914e-01,-5.241552741829182338e+01
1.250071810191302479e-01,-5.283313115123608128e+01
1.259837996208421906e-01,-5.321073488418033293e+01
1.269604182225541611e-01,-5.324833861712459537e+01
1.279370368242661038e-01,-5.314594235006885015e+01
1.289136554259780743e-01,-5.284354608301310918e+01
1.298902740276900170e-01,-5.240114981595736765e+01
1.308668926294019874e-01,-5.171875354890162413e+01
1.318435112311139301e-01,-5.079635728184587862e+01
1.328201298328259006e-01,-4.983396101479013396e+01
1.337967484345378433e-01,-4.907156474773439214e+01
1.347733670362497860e-01,-4.840916848067865175e+01
1.357499856379617564e-01,-4.794677221362289998e+01
1.367266042396736991e-01,-4.744437594656715618e+01
1.377032228413856696e-01,-4.698197967951141862e+01
1.386798414430976123e-01,-4.651958341245566686e+01
1.396564600448095828e-01,-4.621718714539992590e+01
1.406330786465215255e-01,-4.615479087834417982e+01
1.416096972482334959e-01,-4.625239461128844454e+01
1.425863158499454386e-01,-4.646999834423269959e+01
1.435629344516573813e-01,-4.668760207717695465e+01
1.445395530533693518e-01,-4.682520581012121141e+01
1.455161716550812945e-01,-4.684280954306546363e+01
1.464927902567932649e-01,-4.656041327600971869e+01
1.474694088585052076e-01,-4.597801700895397659e+01
1.484460274602171781e-01,-4.533562074189823221e+01
1.494226460619291208e-01,-4.479322447484248926e+01
1.503992646636410913e-01,-4.421082820778674716e+01
1.513758832653530340e-01,-4.382843194073100079e+01
1.523525018670649767e-01,-4.376603567367525471e+01
1.533291204687769471e-01,-4.396363940661951375e+01
1.543057390704888898e-01,-4.432124313956376938e+01
1.552823576722008603e-01,-4.469884687250802813e+01
1.562589762739128030e-01,-4.513645060545228205e+01
1.572355948756247734e-01,-4.557405433839654307e+01
1.582122134773367161e-01,-4.587165807134079643e+01
1.591888320790486866e-01,-4.600926180428505319e+01
1.601654506807606293e-01,-4.598686553722931336e+01
1.611420692824725720e-01,-4.572446927017356444e+01
1.621186878841845425e-01,-4.532207300311782205e+01
1.630953064858964852e-01,-4.473967673606207285e+01
1.640719250876084556e-01,-4.395728046900632791e+01
1.650485436893203983e-01,-4.309488420195059177e+01
1.660251622910323688e-01,-4.203248793489485280e+01
1.670017808927443115e-01,-4.121009166783910160e+01
1.679783994944562819e-01,-4.026769540078336007e+01
1.689550180961682246e-01,-3.950529913372761825e+01
1.699316366978801673e-01,-3.890290286667187303e+01
1.709082552995921378e-01,-3.856050659961612581e+01
1.718848739013040805e-01,-3.847811033256038371e+01
1.728614925030160510e-01,-3.861571406550464047e+01
1.738381111047279937e-01,-3.881331779844889951e+01
1.748147297064399641e-01,-3.905092153139315059e+01
1.757913483081519068e-01,-3.940852526433740621e+01
1.767679669098638773e-01,-3.990612899728166241e+01
1.777445855115758200e-01,-4.036373273022592656e+01
1.787212041132877627e-01,-4.050133646317018332e+01
1.796978227149997331e-01,-4.043894019611443724e+01
1.806744413167116758e-01,-4.029654392905869287e+01
1.816510599184236463e-01,-4.011414766200294935e+01
1.826276785201355890e-01,-3.981175139494720128e+01
1.836042971218475595e-01,-3.924935512789146230e+01
1.845809157235595022e-01,-3.850695886083571651e+01
1.855575343252714726e-01,-3.764456259377997327e+01
1.865341529269834153e-01,-3.686216632672422833e+01
1.875107715286953858e-01,-3.573977005966848708e+01
1.884873901304073285e-01,-3.445737379261274214e+01
1.894640087321192712e-01,-3.295497752555699833e+01
1.904406273338312416e-01,-3.147258125850125410e+01
1.914172459355431843e-01,-3.005018499144551214e+01
1.923938645372551548e-01,-2.886778872438976506e+01
1.933704831389670975e-01,-2.760539245733402325e+01
1.943471017406790680e-01,-2.638299619027827703e+01
1.953237203423910107e-01,-2.500059992322253422e+01
1.963003389441029811e-01,-2.367820365616679013e+01
1.972769575458149238e-01,-2.247580738911104703e+01
1.982535761475268665e-01,-2.119341112205530209e+01
1.992301947492388370e-01,-1.991101485499956070e+01
2.002068133509507797e-01,-1.876861858794381632e+01
2.011834319526627501e-01,-1.770622232088807380e+01
2.021600505543746928e-01,-1.688382605383232971e+01
2.031366691560866633e-01,-1.600142978677658334e+01
2.041132877577986060e-01,-1.545903351972084572e+01
2.050899063595105765e-01,-1.511663725266510205e+01
2.060665249612225192e-01,-1.495424098560935811e+01
2.070431435629344619e-01,-1.485184471855361465e+01
2.080197621646464323e-01,-1.472944845149787163e+01
2.089963807663583750e-01,-1.456705218444212768e+01
2.099729993680703455e-01,-1.428465591738638274e+01
2.109496179697822882e-01,-1.388225965033063858e+01
2.119262365714942586e-01,-1.329986338327489470e+01
2.129028551732062013e-01,-1.245746711621915104e+01
2.138794737749181718e-01,-1.159507084916340780e+01
2.148560923766301145e-01,-1.089267458210766470e+01
2.158327109783420572e-01,-1.035027831505191998e+01
2.168093295800540277e-01,-1.000788204799617631e+01
2.177859481817659704e-01,-9.725485780940433145e+00
2.187625667834779408e-01,-9.363089513884688131e+00
2.197391853851898835e-01,-8.960693246828945746e+00
2.207158039869018540e-01,-8.258296979773200874e+00
2.216924225886137967e-01,-7.355900712717456713e+00
2.226690411903257671e-01,-6.213504445661714115e+00
2.236456597920377098e-01,-4.831108178605971304e+00
2.246222783937496525e-01,-3.268711911550225224e+00
2.255988969954616230e-01,-1.746315644494481845e+00
2.265755155971735657e-01,-1.639193774387396330e-01
2.275521341988855362e-01,1.318476889617004488e+00
2.285287528005974789e-01,2.900873156672750142e+00
2.295053714023094493e-01,3.883269423728494374e+00
2.304819900040213920e-01,4.345665690784235480e+00
2.314586086057333625e-01,4.208061957839982270e+00
2.324352272074453052e-01,3.370458224895722665e+00
2.334118458091572479e-01,2.472854491951467892e+00
2.343884644108692183e-01,1.455250759007212125e+00
2.353650830125811610e-01,5.576470260629574627e-01
2.363417016142931315e-01,-1.799567068813007209e-01
2.373183202160050742e-01,-6.775604398255569150e-01
2.382949388177170447e-01,-9.551641727698142459e-01
2.392715574194289874e-01,-8.527679057140725716e-01
2.402481760211409578e-01,-4.303716386583270603e-01
2.412247946228529005e-01,2.320246283974168877e-01
2.422014132245648432e-01,1.194420895453157883e+00
2.431780318262768137e-01,2.176817162508902115e+00
2.441546504279887564e-01,3.139213429564646773e+00
2.451312690297007268e-01,4.161609696620390153e+00
2.461078876314126695e-01,5.124005963676134812e+00
2.470845062331246400e-01,5.866402230731877054e+00
2.480611248348365827e-01,6.348798497787621287e+00
2.490377434365485532e-01,6.291194764843366372e+00
2.500143620382604959e-01,6.353591031899108899e+00
2.509909806399724386e-01,6.475987298954853699e+00
2.519675992416843813e-01,6.458383566010597931e+00
2.529442178433963795e-01,6.220779833066339748e+00
2.539208364451083222e-01,5.883176100122083696e+00
2.548974550468202649e-01,5.465572367177829349e+00
2.558740736485322076e-01,5.027968634233571876e+00
2.568506922502442058e-01,4.650364901289316677e+00
2.578273108519561485e-01,4.352761168345059772e+00
2.588039294536680912e-01,4.295157435400804857e+00
2.597805480553800339e-01,4.497553702456547953e+00
2.607571666570919766e-01,5.059949969512290480e+00
2.617337852588039748e-01,5.922346236568033717e+00
2.627104038605159175e-01,6.564742503623778092e+00
2.636870224622278602e-01,6.987138770679523603e+00
2.646636410639398029e-01,7.189535037735266698e+00
2.656402596656518011e-01,7.291931304791011925e+00
2.666168782673637438e-01,7.214327571846753884e+00
2.675934968690756866e-01,7.016723838902498400e+00
2.685701154707876293e-01,6.719120105958241496e+00
2.695467340724995720e-01,6.181516373013986154e+00
2.705233526742115702e-01,5.803912640069730955e+00
2.714999712759235129e-01,5.686308907125473766e+00
2.724765898776354556e-01,5.788705174181215440e+00
2.734532084793473983e-01,6.011101441236961662e+00
2.744298270810593965e-01,6.213497708292704758e+00
2.754064456827713392e-01,6.275893975348447285e+00
2.763830642844832819e-01,6.178290242404193222e+00
2.773596828861952246e-01,5.980686509459930633e+00
2.783363014879071673e-01,5.803082776515674723e+00
2.793129200896191655e-01,5.645479043571418387e+00
2.802895386913311082e-01,5.507875310627165177e+00
2.812661572930430509e-01,5.330271577682909268e+00
2.822427758947549936e-01,5.232667844738651652e+00
2.832193944964669918e-01,5.175064111794396737e+00
2.841960130981789345e-01,5.177460378850140543e+00
2.851726316998908772e-01,5.199856645905883923e+00
2.861492503016028199e-01,5.262252912961626450e+00
2.871258689033147626e-01,5.344649180017372103e+00
2.881024875050267609e-01,5.367045447073115483e+00
2.890791061067387036e-01,5.289441714128857441e+00
2.900557247084506463e-01,5.071837981184602384e+00
2.910323433101625890e-01,4.794234248240345053e+00
2.920089619118745872e-01,4.516630515296087722e+00
2.929855805135865299e-01,4.279026782351833091e+00
2.939621991152984726e-01,4.101423049407577182e+00
2.949388177170104153e-01,4.003819316463319566e+00
2.959154363187223580e-01,3.866215583519066357e+00
2.968920549204343562e-01,3.708611850574810020e+00
2.978686735221462989e-01,3.611008117630552405e+00
2.988452921238582416e-01,3.453404384686296069e+00
2.998219107255701843e-01,3.315800651742039307e+00
3.007985293272821825e-01,3.178196918797782544e+00
3.017751479289941252e-01,3.040593185853525782e+00
3.027517665307060679e-01,2.762989452909272003e+00
3.037283851324180106e-01,2.425385719965015952e+00
3.047050037341299533e-01,1.967781987020758905e+00
3.056816223358419515e-01,1.650178254076502427e+00
3.066582409375538942e-01,1.232574521132248080e+00
3.076348595392658369e-01,8.149707881879902915e-01
3.086114781409777796e-01,4.973670552437338133e-01
3.095880967426897779e-01,2.997633222994783297e-01
3.105647153444017206e-01,2.221595893552202883e-01
3.115413339461136633e-01,2.045558564109645205e-01
3.125179525478256060e-01,2.669521234667106002e-01
3.134945711495375487e-01,4.493483905224505692e-01
3.144711897512495469e-01,8.517446575781929541e-01
3.154478083529614896e-01,1.434140924633938496e+00
3.164244269546734323e-01,2.176537191689680739e+00
3.174010455563853750e-01,2.938933458745426108e+00
3.183776641580973732e-01,3.641329725801169204e+00
3.193542827598093159e-01,4.063725992856911162e+00
3.203309013615212586e-01,4.386122259912655252e+00
3.213075199632332013e-01,4.528518526968399627e+00
3.222841385649451440e-01,4.390914794024142864e+00
3.232607571666571422e-01,4.013311061079887665e+00
3.242373757683690849e-01,3.555707328135630618e+00
3.252139943700810276e-01,3.138103595191376272e+00
3.261906129717929703e-01,2.700499862247118799e+00
3.271672315735049685e-01,2.322896129302863599e+00
3.281438501752169112e-01,2.025292396358606695e+00
3.291204687769288539e-01,2.007688663414350927e+00
3.300970873786407966e-01,2.150084930470095301e+00
3.310737059803527393e-01,2.392481197525837544e+00
3.320503245820647376e-01,2.614877464581580213e+00
3.330269431837766803e-01,2.757273731637324587e+00
3.340035617854886230e-01,2.979669998693070809e+00
3.349801803872005657e-01,3.202066265748813478e+00
3.359567989889125639e-01,3.304462532804558705e+00
3.369334175906245066e-01,3.226858799860300664e+00
3.379100361923364493e-01,3.069255066916044328e+00
3.388866547940483920e-01,2.951651333971787139e+00
3.398632733957603347e-01,2.754047601027531655e+00
3.408398919974723329e-01,2.536443868083276598e+00
3.418165105991842756e-01,2.298840135139018415e+00
3.427931292008962183e-01,2.141236402194762078e+00
3.437697478026081610e-01,2.083632669250507163e+00
3.447463664043201592e-01,2.066028936306251396e+00
3.457229850060321019e-01,2.088425203361994775e+00
3.466996036077440446e-01,2.190821470417740002e+00
3.476762222094559873e-01,2.373217737473483524e+00
3.486528408111679300e-01,2.615614004529225767e+00
3.496294594128799282e-01,2.838010271584971989e+00
3.506060780145918709e-01,3.000406538640712384e+00
3.515826966163038136e-01,3.002802805696456190e+00
3.525593152180157563e-01,2.945199072752197722e+00
3.535359338197277546e-01,2.887595339807942807e+00
3.545125524214396973e-01,2.889991606863686613e+00
3.554891710231516400e-01,2.672387873919428003e+00
3.564657896248635827e-01,2.354784140975175077e+00
3.574424082265755254e-01,1.877180408030918457e+00
3.584190268282875236e-01,1.139576675086660273e+00
3.593956454299994663e-01,3.019729421424043325e-01
3.603722640317114090e-01,-6.356307908018495878e-01
3.613488826334233517e-01,-1.673234523746108593e+00
3.623255012351353499e-01,-2.230838256690363508e+00
3.633021198368472926e-01,-2.668441989634620981e+00
3.642787384385592353e-01,-3.026045722578876607e+00
3.652553570402711780e-01,-3.263649455523131238e+00
3.662319756419831207e-01,-3.461253188467386721e+00
3.672085942436951189e-01,-3.518856921411645189e+00
3.681852128454070616e-01,-3.216460654355900672e+00
3.691618314471190043e-01,-2.714064387300156866e+00
3.701384500488309470e-01,-2.171668120244413913e+00
3.711150686505429452e-01,-1.529271853188669539e+00
3.720916872522548879e-01,-1.046875586132925307e+00
3.730683058539668306e-01,-4.644793190771830949e-01
3.740449244556787733e-01,-6.208305202143716423e-02
3.750215430573907716e-01,2.403132150343073592e-01
3.759981616591027143e-01,4.427094820900504546e-01
3.769747802608146570e-01,6.451057491457935500e-01
3.779513988625265997e-01,7.075020162015360770e-01
3.789280174642385424e-01,7.298982832572794566e-01
3.799046360659505406e-01,4.722945503130252520e-01
3.808812546676624833e-01,-1.453091826312319368e-01
3.818578732693744260e-01,-9.029129155754861413e-01
3.828344918710863687e-01,-1.660516648519744010e+00
3.838111104727983669e-01,-2.318120381464000346e+00
