# spatial freqs [1/mm], spectrum [a.u.]
0.000000000000000000e+00,8.777147729115775121e+00
9.766186017119550620e-04,7.555357246360223655e+00
1.953237203423910124e-03,6.453566763604683842e+00
2.929855805135865403e-03,5.451776280849131240e+00
3.906474406847820248e-03,4.729985798093572669e+00
4.883093008559775093e-03,4.428195315338022908e+00
5.859711610271730806e-03,4.726404832582467463e+00
6.836330211983685651e-03,5.364614349826922535e+00
7.812948813695640496e-03,6.082823867071368795e+00
8.789567415407595341e-03,6.821033384315818182e+00
9.766186017119550186e-03,7.439242901560270127e+00
1.074280461883150503e-02,7.297452418804716956e+00
1.171942322054346161e-02,6.495661936049167196e+00
1.269604182225541646e-02,5.073871453293612888e+00
1.367266042396737130e-02,3.412080970538064140e+00
1.464927902567932615e-02,1.570290487782507904e+00
1.562589762739128099e-02,2.850000502696335009e-02
1.660251622910323757e-02,-1.073290477728583658e+00
1.757913483081519068e-02,-1.555080960484140240e+00
1.855575343252714726e-02,-1.376871443239693127e+00
1.953237203423910037e-02,-6.386619259952436289e-01
2.050899063595105695e-02,6.595475912492080317e-01
2.148560923766301006e-02,2.177757108493658667e+00
2.246222783937496664e-02,3.595966625738107769e+00
2.343884644108692322e-02,4.694176142982549038e+00
2.441546504279887633e-02,5.492385660227000699e+00
2.539208364451083291e-02,5.950595177471456054e+00
2.636870224622278602e-02,6.328804694715898904e+00
2.734532084793474260e-02,6.627014211960350565e+00
2.832193944964669571e-02,6.845223729204796825e+00
2.929855805135865229e-02,6.883433246449243370e+00
3.027517665307060540e-02,6.761642763693700431e+00
3.125179525478256198e-02,6.379852280938145270e+00
3.222841385649451856e-02,5.738061798182592099e+00
3.320503245820647514e-02,4.836271315427040918e+00
3.418165105991842478e-02,3.494480832671485349e+00
3.515826966163038136e-02,2.012690349915942978e+00
3.613488826334233794e-02,2.308998671603890995e-01
3.711150686505429452e-02,-1.550890615595164723e+00
3.808812546676624416e-02,-3.412681098350716535e+00
3.906474406847820074e-02,-5.154471581106271572e+00
4.004136267019015732e-02,-6.796262063861817637e+00
4.101798127190211390e-02,-7.938052546617363703e+00
4.199459987361407048e-02,-8.719843029372917442e+00
4.297121847532602013e-02,-9.181633512128470898e+00
4.394783707703797671e-02,-9.523423994884026911e+00
4.492445567874993329e-02,-9.805214477639573545e+00
4.590107428046188986e-02,-1.010700496039512331e+01
4.687769288217384644e-02,-1.042879544315067619e+01
4.785431148388579609e-02,-1.077058592590622510e+01
4.883093008559775267e-02,-1.111237640866177401e+01
4.980754868730970925e-02,-1.159416689141732348e+01
5.078416728902166583e-02,-1.209595737417287609e+01
5.176078589073361547e-02,-1.269774785692843011e+01
5.273740449244557205e-02,-1.333953833968398328e+01
5.371402309415752863e-02,-1.392132882243953063e+01
5.469064169586948521e-02,-1.434311930519508138e+01
5.566726029758144179e-02,-1.450490978795063413e+01
5.664387889929339143e-02,-1.440670027070618886e+01
5.762049750100534801e-02,-1.406849075346173805e+01
5.859711610271730459e-02,-1.359028123621728668e+01
5.957373470442926117e-02,-1.311207171897283530e+01
6.055035330614121081e-02,-1.299386220172839046e+01
6.152697190785316739e-02,-1.285565268448394249e+01
6.250359050956512397e-02,-1.277744316723949680e+01
6.348020911127708055e-02,-1.271923364999504003e+01
6.445682771298903713e-02,-1.264102413275059433e+01
6.543344631470099371e-02,-1.236281461550614580e+01
6.641006491641295029e-02,-1.206460509826170124e+01
6.738668351812489299e-02,-1.170639558101725441e+01
6.836330211983684957e-02,-1.146818606377279792e+01
6.933992072154880615e-02,-1.134997654652835308e+01
7.031653932326076273e-02,-1.129176702928390341e+01
7.129315792497271931e-02,-1.111355751203945630e+01
7.226977652668467589e-02,-1.039534799479501004e+01
7.324639512839663247e-02,-9.837138477550553262e+00
7.422301373010858905e-02,-9.518928960306105580e+00
7.519963233182054563e-02,-9.360719443061661593e+00
7.617625093353248833e-02,-9.342509925817211069e+00
7.715286953524444491e-02,-9.484300408572757135e+00
7.812948813695640149e-02,-9.786090891328306896e+00
7.910610673866835807e-02,-1.028788137408385950e+01
8.008272534038031465e-02,-1.078967185683941210e+01
8.105934394209227123e-02,-1.119146233959496328e+01
8.203596254380422781e-02,-1.147325282235050992e+01
8.301258114551618439e-02,-1.181504330510606593e+01
8.398919974722814097e-02,-1.211683378786161569e+01
8.496581834894008367e-02,-1.233862427061716716e+01
8.594243695065204025e-02,-1.230041475337272061e+01
8.691905555236399683e-02,-1.198220523612826582e+01
8.789567415407595341e-02,-1.146399571888382241e+01
8.887229275578790999e-02,-1.080578620163937131e+01
8.984891135749986657e-02,-1.086757668439492619e+01
9.082552995921182315e-02,-1.118936716715047908e+01
9.180214856092377973e-02,-1.167115764990602145e+01
9.277876716263573631e-02,-1.225294813266157945e+01
9.375538576434769289e-02,-1.287473861541712949e+01
9.473200436605963559e-02,-1.347652909817268352e+01
9.570862296777159217e-02,-1.401831958092823527e+01
9.668524156948354875e-02,-1.458011006368377949e+01
9.766186017119550533e-02,-1.498190054643933422e+01
9.863847877290746191e-02,-1.526369102919488441e+01
9.961509737461941849e-02,-1.542548151195043715e+01
1.005917159763313751e-01,-1.564727199470598862e+01
1.015683345780433317e-01,-1.596906247746153440e+01
1.025449531797552882e-01,-1.611085296021708757e+01
1.035215717814672309e-01,-1.615264344297263932e+01
1.044981903831791875e-01,-1.611443392572819278e+01
1.054748089848911441e-01,-1.613622440848373785e+01
1.064514275866031007e-01,-1.617801489123929315e+01
1.074280461883150573e-01,-1.623980537399484447e+01
1.084046647900270138e-01,-1.642159585675039679e+01
1.093812833917389704e-01,-1.658338633950594954e+01
1.103579019934509270e-01,-1.670517682226149603e+01
1.113345205951628836e-01,-1.676696730501704735e+01
1.123111391968748263e-01,-1.682875778777259868e+01
1.132877577985867829e-01,-1.687054827052815398e+01
1.142643764002987394e-01,-1.691233875328370573e+01
1.152409950020106960e-01,-1.699412923603924952e+01
1.162176136037226526e-01,-1.705591971879480440e+01
1.171942322054346092e-01,-1.703771020155035743e+01
1.181708508071465658e-01,-1.691950068430590903e+01
1.191474694088585223e-01,-1.674129116706146192e+01
1.201240880105704789e-01,-1.670308164981700827e+01
1.211007066122824216e-01,-1.664487213257255860e+01
1.220773252139943782e-01,-1.646666261532811149e+01
1.230539438157063348e-01,-1.632845309808366352e+01
1.240305624174182914e-01,-1.621024358083921868e+01
1.250071810191302479e-01,-1.617203406359476148e+01
1.259837996208421906e-01,-1.631382454635031465e+01
1.269604182225541611e-01,-1.665561502910586711e+01
1.279370368242661038e-01,-1.709740551186142099e+01
1.289136554259780743e-01,-1.745919599461697302e+01
1.298902740276900170e-01,-1.812098647737251866e+01
1.308668926294019874e-01,-1.892277696012807198e+01
1.318435112311139301e-01,-1.992456744288362458e+01
1.328201298328259006e-01,-2.116635792563917562e+01
1.337967484345378433e-01,-2.256814840839473035e+01
1.347733670362497860e-01,-2.414993889115027415e+01
1.357499856379617564e-01,-2.585172937390582604e+01
1.367266042396736991e-01,-2.745351985666138006e+01
1.377032228413856696e-01,-2.885531033941693124e+01
1.386798414430976123e-01,-3.005710082217247958e+01
1.396564600448095828e-01,-3.095889130492803076e+01
1.406330786465215255e-01,-3.146068178768358337e+01
1.416096972482334959e-01,-3.168247227043913483e+01
1.425863158499454386e-01,-3.160426275319468914e+01
1.435629344516573813e-01,-3.120605323595023606e+01
1.445395530533693518e-01,-3.068784371870578553e+01
1.455161716550812945e-01,-3.022963420146133728e+01
1.464927902567932649e-01,-2.991142468421688960e+01
1.474694088585052076e-01,-2.969321516697244334e+01
1.484460274602171781e-01,-2.951500564972798912e+01
1.494226460619291208e-01,-2.929679613248354286e+01
1.503992646636410913e-01,-2.901858661523909433e+01
1.513758832653530340e-01,-2.858037709799464920e+01
1.523525018670649767e-01,-2.794216758075020124e+01
1.533291204687769471e-01,-2.722395806350574432e+01
1.543057390704888898e-01,-2.644574854626129934e+01
1.552823576722008603e-01,-2.556753902901684938e+01
1.562589762739128030e-01,-2.464932951177240383e+01
1.572355948756247734e-01,-2.391111999452795445e+01
1.582122134773367161e-01,-2.331291047728350208e+01
1.591888320790486866e-01,-2.287470096003905340e+01
1.601654506807606293e-01,-2.257649144279460529e+01
1.611420692824725720e-01,-2.243828192555016088e+01
1.621186878841845425e-01,-2.220007240830571149e+01
1.630953064858964852e-01,-2.216186289106125784e+01
1.640719250876084556e-01,-2.220365337381680959e+01
1.650485436893203983e-01,-2.228544385657236404e+01
1.660251622910323688e-01,-2.250723433932791551e+01
1.670017808927443115e-01,-2.290902482208345958e+01
1.679783994944562819e-01,-2.321081530483901290e+01
1.689550180961682246e-01,-2.321260578759456550e+01
1.699316366978801673e-01,-2.265439627035011938e+01
1.709082552995921378e-01,-2.205618675310567056e+01
1.718848739013040805e-01,-2.163797723586121791e+01
1.728614925030160510e-01,-2.141976771861676809e+01
1.738381111047279937e-01,-2.144155820137232027e+01
1.748147297064399641e-01,-2.168334868412787486e+01
1.757913483081519068e-01,-2.228513916688342533e+01
1.767679669098638773e-01,-2.296692964963897410e+01
1.777445855115758200e-01,-2.406872013239452457e+01
1.787212041132877627e-01,-2.523051061515007731e+01
1.796978227149997331e-01,-2.633230109790563134e+01
1.806744413167116758e-01,-2.737409158066118309e+01
1.816510599184236463e-01,-2.809588206341672745e+01
1.826276785201355890e-01,-2.827767254617227977e+01
1.836042971218475595e-01,-2.797946302892783521e+01
1.845809157235595022e-01,-2.754125351168338653e+01
1.855575343252714726e-01,-2.706304399443893871e+01
1.865341529269834153e-01,-2.664483447719448606e+01
1.875107715286953858e-01,-2.636662495995003752e+01
1.884873901304073285e-01,-2.618841544270559041e+01
1.894640087321192712e-01,-2.607020592546114202e+01
1.904406273338312416e-01,-2.599199640821669632e+01
1.914172459355431843e-01,-2.587378689097224083e+01
1.923938645372551548e-01,-2.571557737372779329e+01
1.933704831389670975e-01,-2.583736785648334688e+01
1.943471017406790680e-01,-2.591915833923889778e+01
1.953237203423910107e-01,-2.608094882199445053e+01
1.963003389441029811e-01,-2.626273930474999574e+01
1.972769575458149238e-01,-2.638452978750554934e+01
1.982535761475268665e-01,-2.646632027026110023e+01
1.992301947492388370e-01,-2.648811075301665241e+01
2.002068133509507797e-01,-2.648990123577219791e+01
2.011834319526627501e-01,-2.645169171852775136e+01
2.021600505543746928e-01,-2.619348220128330595e+01
2.031366691560866633e-01,-2.607527268403885756e+01
2.041132877577986060e-01,-2.575706316679440988e+01
2.050899063595105765e-01,-2.529885364954995453e+01
2.060665249612225192e-01,-2.482064413230550670e+01
2.070431435629344619e-01,-2.438243461506106158e+01
2.080197621646464323e-01,-2.414422509781661219e+01
2.089963807663583750e-01,-2.406601558057216650e+01
2.099729993680703455e-01,-2.418780606332771299e+01
2.109496179697822882e-01,-2.434959654608326218e+01
2.119262365714942586e-01,-2.453138702883881805e+01
2.129028551732062013e-01,-2.465317751159436810e+01
2.138794737749181718e-01,-2.457496799434992241e+01
2.148560923766301145e-01,-2.445675847710546691e+01
2.158327109783420572e-01,-2.435854895986101809e+01
2.168093295800540277e-01,-2.440033944261657339e+01
2.177859481817659704e-01,-2.442212992537212557e+01
2.187625667834779408e-01,-2.454392040812767917e+01
2.197391853851898835e-01,-2.468571089088322168e+01
2.207158039869018540e-01,-2.482750137363877485e+01
2.216924225886137967e-01,-2.490929185639432930e+01
2.226690411903257671e-01,-2.495108233914988105e+01
2.236456597920377098e-01,-2.487287282190543181e+01
2.246222783937496525e-01,-2.463466330466097887e+01
2.255988969954616230e-01,-2.417645378741653062e+01
2.265755155971735657e-01,-2.369824427017208279e+01
2.275521341988855362e-01,-2.318003475292763582e+01
2.285287528005974789e-01,-2.260182523568318302e+01
2.295053714023094493e-01,-2.212361571843873520e+01
2.304819900040213920e-01,-2.168540620119428652e+01
2.314586086057333625e-01,-2.134719668394983927e+01
2.324352272074453052e-01,-2.128898716670539315e+01
2.334118458091572479e-01,-2.141077764946093964e+01
2.343884644108692183e-01,-2.155256813221648926e+01
2.353650830125811610e-01,-2.171435861497204201e+01
2.363417016142931315e-01,-2.193614909772759702e+01
2.373183202160050742e-01,-2.217793958048314806e+01
2.382949388177170447e-01,-2.245973006323869470e+01
2.392715574194289874e-01,-2.276152054599424801e+01
2.402481760211409578e-01,-2.326331102874980061e+01
2.412247946228529005e-01,-2.376510151150535322e+01
2.422014132245648432e-01,-2.420689199426090354e+01
2.431780318262768137e-01,-2.460868247701645117e+01
2.441546504279887564e-01,-2.517047295977200250e+01
2.451312690297007268e-01,-2.577226344252755652e+01
2.461078876314126695e-01,-2.627405392528310912e+01
2.470845062331246400e-01,-2.675584440803866215e+01
2.480611248348365827e-01,-2.745763489079420694e+01
2.490377434365485532e-01,-2.819942537354975798e+01
2.500143620382604959e-01,-2.890121585630530987e+01
2.509909806399724386e-01,-2.956300633906086262e+01
2.519675992416843813e-01,-2.994479682181641778e+01
2.529442178433963795e-01,-3.006658730457196071e+01
2.539208364451083222e-01,-2.992837778732751275e+01
2.548974550468202649e-01,-2.947016827008306805e+01
2.558740736485322076e-01,-2.881195875283862051e+01
2.568506922502442058e-01,-2.791374923559416388e+01
2.578273108519561485e-01,-2.699553971834971833e+01
2.588039294536680912e-01,-2.623733020110526937e+01
2.597805480553800339e-01,-2.585912068386082296e+01
2.607571666570919766e-01,-2.600091116661637614e+01
2.617337852588039748e-01,-2.644270164937191936e+01
2.627104038605159175e-01,-2.688449213212747324e+01
2.636870224622278602e-01,-2.736628261488302627e+01
2.646636410639398029e-01,-2.774807309763857788e+01
2.656402596656518011e-01,-2.782986358039413233e+01
2.666168782673637438e-01,-2.781165406314967825e+01
2.675934968690756866e-01,-2.791344454590522872e+01
2.685701154707876293e-01,-2.789523502866078175e+01
2.695467340724995720e-01,-2.787702551141633478e+01
2.705233526742115702e-01,-2.791881599417188653e+01
2.714999712759235129e-01,-2.798060647692743430e+01
2.724765898776354556e-01,-2.802239695968298605e+01
2.734532084793473983e-01,-2.792418744243853723e+01
2.744298270810593965e-01,-2.778597792519408927e+01
2.754064456827713392e-01,-2.760776840794964215e+01
2.763830642844832819e-01,-2.722955889070518865e+01
2.773596828861952246e-01,-2.649134937346074281e+01
2.783363014879071673e-01,-2.545313985621629271e+01
2.793129200896191655e-01,-2.439493033897184660e+01
2.802895386913311082e-01,-2.333672082172740048e+01
2.812661572930430509e-01,-2.247851130448294299e+01
2.822427758947549936e-01,-2.216030178723849886e+01
2.832193944964669918e-01,-2.220209226999405061e+01
2.841960130981789345e-01,-2.244388275274960165e+01
2.851726316998908772e-01,-2.272567323550515539e+01
2.861492503016028199e-01,-2.310746371826069989e+01
2.871258689033147626e-01,-2.330925420101625178e+01
2.881024875050267609e-01,-2.337104468377180666e+01
2.890791061067387036e-01,-2.333283516652736012e+01
2.900557247084506463e-01,-2.307462564928290405e+01
2.910323433101625890e-01,-2.265641613203845495e+01
2.920089619118745872e-01,-2.187820661479400997e+01
2.929855805135865299e-01,-2.089999709754956214e+01
2.939621991152984726e-01,-1.984178758030511602e+01
2.949388177170104153e-01,-1.882357806306065839e+01
2.959154363187223580e-01,-1.806536854581621299e+01
2.968920549204343562e-01,-1.780715902857176403e+01
2.978686735221462989e-01,-1.804894951132731862e+01
2.988452921238582416e-01,-1.863073999408286952e+01
2.998219107255701843e-01,-1.957253047683841629e+01
3.007985293272821825e-01,-2.055432095959396932e+01
3.017751479289941252e-01,-2.145611144234952050e+01
3.027517665307060679e-01,-2.213790192510507282e+01
3.037283851324180106e-01,-2.255969240786062713e+01
3.047050037341299533e-01,-2.246148289061617120e+01
3.056816223358419515e-01,-2.188327337337172551e+01
3.066582409375538942e-01,-2.082506385612727584e+01
3.076348595392658369e-01,-1.934685433888282802e+01
3.086114781409777796e-01,-1.774864482163838275e+01
3.095880967426897779e-01,-1.597043530439392711e+01
3.105647153444017206e-01,-1.427222578714948042e+01
3.115413339461136633e-01,-1.267401626990503161e+01
3.125179525478256060e-01,-1.141580675266058620e+01
3.134945711495375487e-01,-1.061759723541613454e+01
3.144711897512495469e-01,-1.013938771817168316e+01
3.154478083529614896e-01,-9.901178200927233775e+00
3.164244269546734323e-01,-9.782968683682788935e+00
3.174010455563853750e-01,-9.644759166438340969e+00
3.183776641580973732e-01,-9.466549649193886751e+00
3.193542827598093159e-01,-9.448340131949436227e+00
3.203309013615212586e-01,-9.450130614704988830e+00
3.213075199632332013e-01,-9.391921097460546264e+00
3.222841385649451440e-01,-9.333711580216096593e+00
3.232607571666571422e-01,-9.095502062971640100e+00
3.242373757683690849e-01,-8.657292545727194977e+00
3.252139943700810276e-01,-8.079083028482749285e+00
3.261906129717929703e-01,-7.440873511238301319e+00
3.271672315735049685e-01,-6.842663993993852500e+00
3.281438501752169112e-01,-6.384454476749397145e+00
3.291204687769288539e-01,-5.966244959504948042e+00
3.300970873786407966e-01,-5.748035442260501782e+00
3.310737059803527393e-01,-5.709825925016055237e+00
3.320503245820647376e-01,-5.791616407771606134e+00
3.330269431837766803e-01,-6.153406890527151063e+00
3.340035617854886230e-01,-6.595197373282708497e+00
3.349801803872005657e-01,-6.996987856038259679e+00
3.359567989889125639e-01,-7.238778338793814271e+00
3.369334175906245066e-01,-7.200568821549367726e+00
3.379100361923364493e-01,-6.942359304304908107e+00
3.388866547940483920e-01,-6.484149787060459857e+00
3.398632733957603347e-01,-5.825940269816015871e+00
3.408398919974723329e-01,-5.127730752571565631e+00
3.418165105991842756e-01,-4.349521235327124202e+00
3.427931292008962183e-01,-3.431311718082667550e+00
3.437697478026081610e-01,-2.613102200838219868e+00
3.447463664043201592e-01,-1.734892683593770135e+00
3.457229850060321019e-01,-9.166831663493223425e-01
3.466996036077440446e-01,-1.184736491048706958e-01
3.476762222094559873e-01,5.597358681395764313e-01
3.486528408111679300e-01,1.177945385384028265e+00
3.496294594128799282e-01,1.876154902628471399e+00
3.506060780145918709e-01,2.554364419872918734e+00
3.515826966163038136e-01,3.172573937117377785e+00
3.525593152180157563e-01,3.870783454361820919e+00
3.535359338197277546e-01,4.308992971606272704e+00
3.545125524214396973e-01,4.807202488850720101e+00
3.554891710231516400e-01,5.405412006095161814e+00
3.564657896248635827e-01,5.883621523339620296e+00
3.574424082265755254e-01,6.321831040584065420e+00
3.584190268282875236e-01,6.700040557828515375e+00
3.593956454299994663e-01,6.978250075072963909e+00
3.603722640317114090e-01,7.456459592317408180e+00
3.613488826334233517e-01,7.794669109561866094e+00
3.623255012351353499e-01,8.132878626806309796e+00
3.633021198368472926e-01,8.431088144050754352e+00
3.642787384385592353e-01,8.569297661295202317e+00
3.652553570402711780e-01,8.647507178539655115e+00
3.662319756419831207e-01,8.725716695784107912e+00
3.672085942436951189e-01,8.783926213028557584e+00
3.681852128454070616e-01,8.762135730273001855e+00
3.691618314471190043e-01,8.640345247517451810e+00
3.701384500488309470e-01,8.558554764761893807e+00
3.711150686505429452e-01,8.556764282006348310e+00
3.720916872522548879e-01,8.634973799250801108e+00
3.730683058539668306e-01,8.773183316495249073e+00
3.740449244556787733e-01,8.971392833739692207e+00
3.750215430573907716e-01,9.309602350984143015e+00
3.759981616591027143e-01,9.747811868228595245e+00
3.769747802608146570e-01,1.012602138547304520e+01
3.779513988625265997e-01,1.042423090271748976e+01
3.789280174642385424e-01,1.058244041996193374e+01
3.799046360659505406e-01,1.060064993720639137e+01
3.808812546676624833e-01,1.059885945445083877e+01
3.818578732693744260e-01,1.065706897169528844e+01
