# spatial freqs [1/mm], spectrum [a.u.]
0.000000000000000000e+00,-1.910412653175716002e+01
9.766186017119550620e-04,-1.860410890054235367e+01
1.953237203423910124e-03,-1.806409126932754816e+01
2.929855805135865403e-03,-1.764407363811273655e+01
3.906474406847820248e-03,-1.726405600689793118e+01
4.883093008559775093e-03,-1.700403837568311971e+01
5.859711610271730806e-03,-1.686402074446831278e+01
6.836330211983685651e-03,-1.678400311325350458e+01
7.812948813695640496e-03,-1.688398548203869964e+01
8.789567415407595341e-03,-1.706396785082389300e+01
9.766186017119550186e-03,-1.738395021960908338e+01
1.074280461883150503e-02,-1.762393258839427546e+01
1.171942322054346161e-02,-1.780391495717946526e+01
1.269604182225541646e-02,-1.788389732596466075e+01
1.367266042396737130e-02,-1.780387969474985255e+01
1.464927902567932615e-02,-1.770386206353504477e+01
1.562589762739128099e-02,-1.766384443232023216e+01
1.660251622910323757e-02,-1.778382680110542680e+01
1.757913483081519068e-02,-1.800380916989061930e+01
1.855575343252714726e-02,-1.842379153867581110e+01
1.953237203423910037e-02,-1.880377390746100374e+01
2.050899063595105695e-02,-1.918375627624619284e+01
2.148560923766301006e-02,-1.942373864503138847e+01
2.246222783937496664e-02,-1.952372101381657643e+01
2.343884644108692322e-02,-1.948370338260177093e+01
2.441546504279887633e-02,-1.936368575138696002e+01
2.539208364451083291e-02,-1.924366812017215622e+01
2.636870224622278602e-02,-1.918365048895734759e+01
2.734532084793474260e-02,-1.916363285774253811e+01
2.832193944964669571e-02,-1.910361522652773303e+01
2.929855805135865229e-02,-1.916359759531292184e+01
3.027517665307060540e-02,-1.932357996409811562e+01
3.125179525478256198e-02,-1.954356233288331168e+01
3.222841385649451856e-02,-1.988354470166850163e+01
3.320503245820647514e-02,-2.024352707045369471e+01
3.418165105991842478e-02,-2.058350943923888465e+01
3.515826966163038136e-02,-2.080349180802407716e+01
3.613488826334233794e-02,-2.094347417680926782e+01
3.711150686505429452e-02,-2.100345654559446018e+01
3.808812546676624416e-02,-2.094343891437965510e+01
3.906474406847820074e-02,-2.088342128316484647e+01
4.004136267019015732e-02,-2.078340365195003869e+01
4.101798127190211390e-02,-2.066338602073522779e+01
4.199459987361407048e-02,-2.050336838952042129e+01
4.297121847532602013e-02,-2.030335075830561209e+01
4.394783707703797671e-02,-2.002333312709080460e+01
4.492445567874993329e-02,-1.966331549587599881e+01
4.590107428046188986e-02,-1.926329786466119032e+01
4.687769288217384644e-02,-1.882328023344638268e+01
4.785431148388579609e-02,-1.860326260223157391e+01
4.883093008559775267e-02,-1.844324497101676741e+01
4.980754868730970925e-02,-1.826322733980195778e+01
5.078416728902166583e-02,-1.808320970858715171e+01
5.176078589073361547e-02,-1.788319207737234251e+01
5.273740449244557205e-02,-1.766317444615753374e+01
5.371402309415752863e-02,-1.740315681494272582e+01
5.469064169586948521e-02,-1.722313918372791974e+01
5.566726029758144179e-02,-1.710312155251310884e+01
5.664387889929339143e-02,-1.706310392129830333e+01
5.762049750100534801e-02,-1.694308629008349598e+01
5.859711610271730459e-02,-1.680306865886868550e+01
5.957373470442926117e-02,-1.654305102765388114e+01
6.055035330614121081e-02,-1.622303339643907094e+01
6.152697190785316739e-02,-1.600301576522426217e+01
6.250359050956512397e-02,-1.584299813400945212e+01
6.348020911127708055e-02,-1.584298050279464398e+01
6.445682771298903713e-02,-1.582296287157983627e+01
6.543344631470099371e-02,-1.572294524036503027e+01
6.641006491641295029e-02,-1.544292760915022278e+01
6.738668351812489299e-02,-1.490290997793541372e+01
6.836330211983684957e-02,-1.408289234672060708e+01
6.933992072154880615e-02,-1.314287471550579767e+01
7.031653932326076273e-02,-1.214285708429098953e+01
7.129315792497271931e-02,-1.128283945307618197e+01
7.226977652668467589e-02,-1.054282182186137540e+01
7.324639512839663247e-02,-9.882804190646568898e+00
7.422301373010858905e-02,-9.302786559431757141e+00
7.519963233182054563e-02,-9.042768928216949220e+00
7.617625093353248833e-02,-9.022751297002143289e+00
7.715286953524444491e-02,-9.182733665787335298e+00
7.812948813695640149e-02,-9.362716034572525103e+00
7.910610673866835807e-02,-9.422698403357719243e+00
8.008272534038031465e-02,-9.282680772142910541e+00
8.105934394209227123e-02,-9.002663140928104824e+00
8.203596254380422781e-02,-8.582645509713296761e+00
8.301258114551618439e-02,-8.162627878498488698e+00
8.398919974722814097e-02,-7.682610247283680138e+00
8.496581834894008367e-02,-7.162592616068873319e+00
8.594243695065204025e-02,-6.702574984854064333e+00
8.691905555236399683e-02,-6.422557353639256839e+00
8.789567415407595341e-02,-6.202539722424448065e+00
8.887229275578790999e-02,-5.982522091209640180e+00
8.984891135749986657e-02,-5.642504459994832189e+00
9.082552995921182315e-02,-5.322486828780023771e+00
9.180214856092377973e-02,-5.042469197565216277e+00
9.277876716263573631e-02,-4.882451566350408889e+00
9.375538576434769289e-02,-4.702433935135601040e+00
9.473200436605963559e-02,-4.462416303920792693e+00
9.570862296777159217e-02,-4.122398672705984701e+00
9.668524156948354875e-02,-3.762381041491178024e+00
9.766186017119550533e-02,-3.422363410276370033e+00
9.863847877290746191e-02,-3.102345779061561615e+00
9.961509737461941849e-02,-2.742328147846754050e+00
1.005917159763313751e-01,-2.462310516631945667e+00
1.015683345780433317e-01,-2.282292885417137818e+00
1.025449531797552882e-01,-2.082275254202330395e+00
1.035215717814672309e-01,-1.902257622987520769e+00
1.044981903831791875e-01,-1.862239991772714376e+00
1.054748089848911441e-01,-1.822222360557905319e+00
1.064514275866031007e-01,-1.782204729343098037e+00
1.074280461883150573e-01,-1.862187098128289975e+00
1.084046647900270138e-01,-1.942169466913482800e+00
1.093812833917389704e-01,-2.082151835698675235e+00
1.103579019934509270e-01,-2.182134204483866746e+00
1.113345205951628836e-01,-2.202116573269058186e+00
1.123111391968748263e-01,-2.182098942054251367e+00
1.132877577985867829e-01,-2.002081310839443518e+00
1.142643764002987394e-01,-1.762063679624635171e+00
1.152409950020106960e-01,-1.522046048409826824e+00
1.162176136037226526e-01,-1.282028417195019365e+00
1.171942322054346092e-01,-1.062010785980211480e+00
1.181708508071465658e-01,-9.019931547654032045e-01
1.191474694088585223e-01,-7.819755235505949642e-01
1.201240880105704789e-01,-7.419578923357867950e-01
1.211007066122824216e-01,-7.219402611209799758e-01
1.220773252139943782e-01,-7.019226299061713803e-01
1.230539438157063348e-01,-7.019049986913632466e-01
1.240305624174182914e-01,-6.618873674765550774e-01
1.250071810191302479e-01,-6.218697362617477964e-01
1.259837996208421906e-01,-5.618521050469400535e-01
1.269604182225541611e-01,-4.618344738321313314e-01
1.279370368242661038e-01,-2.418168426173234464e-01
1.289136554259780743e-01,3.820078859748404776e-02
1.298902740276900170e-01,3.782184198122920393e-01
1.308668926294019874e-01,6.982360510271004017e-01
1.318435112311139301e-01,8.382536822419082156e-01
1.328201298328259006e-01,9.582713134567155677e-01
1.337967484345378433e-01,9.982889446715237369e-01
1.347733670362497860e-01,9.583065758863318351e-01
1.357499856379617564e-01,8.183242071011394003e-01
1.367266042396736991e-01,6.783418383159469656e-01
1.377032228413856696e-01,5.383594695307554190e-01
1.386798414430976123e-01,3.983771007455630397e-01
1.396564600448095828e-01,2.383947319603710313e-01
1.406330786465215255e-01,9.841236317517859655e-02
1.416096972482334959e-01,-1.570005610012917751e-03
1.425863158499454386e-01,-4.155237439520481635e-02
1.435629344516573813e-01,1.846525681960292306e-02
1.445395530533693518e-01,1.184828880344107049e-01
1.455161716550812945e-01,2.785005192492180925e-01
1.464927902567932649e-01,2.785181504640262262e-01
1.474694088585052076e-01,2.985357816788348218e-01
1.484460274602171781e-01,3.185534128936416409e-01
1.494226460619291208e-01,2.585710441084501654e-01
1.503992646636410913e-01,3.858867532325854777e-02
1.513758832653530340e-01,-3.013936934619331764e-01
1.523525018670649767e-01,-7.813760622471264128e-01
1.533291204687769471e-01,-1.321358431032317426e+00
1.543057390704888898e-01,-1.921340799817510714e+00
1.552823576722008603e-01,-2.521323168602702225e+00
1.562589762739128030e-01,-3.041305537387894553e+00
1.572355948756247734e-01,-3.441287906173086775e+00
1.582122134773367161e-01,-3.681270274958278854e+00
1.591888320790486866e-01,-3.761252643743470792e+00
1.601654506807606293e-01,-3.701235012528663049e+00
1.611420692824725720e-01,-3.481217381313854276e+00
1.621186878841845425e-01,-3.141199750099046284e+00
1.630953064858964852e-01,-2.781182118884238719e+00
1.640719250876084556e-01,-2.341164487669431971e+00
1.650485436893203983e-01,-2.041146856454623126e+00
1.660251622910323688e-01,-1.901129225239814424e+00
1.670017808927443115e-01,-1.861111594025007143e+00
1.679783994944562819e-01,-1.881093962810199471e+00
1.689550180961682246e-01,-2.021076331595391906e+00
1.699316366978801673e-01,-2.281058700380583559e+00
1.709082552995921378e-01,-2.521041069165775639e+00
1.718848739013040805e-01,-2.661023437950968962e+00
1.728614925030160510e-01,-2.561005806736159407e+00
1.738381111047279937e-01,-2.300988175521351486e+00
1.748147297064399641e-01,-2.000970544306544419e+00
1.757913483081519068e-01,-1.760952913091736960e+00
1.767679669098638773e-01,-1.640935281876927831e+00
1.777445855115758200e-01,-1.660917650662121048e+00
1.787212041132877627e-01,-1.900900019447311351e+00
1.796978227149997331e-01,-2.360882388232504070e+00
1.806744413167116758e-01,-2.940864757017696896e+00
1.816510599184236463e-01,-3.600847125802888904e+00
1.826276785201355890e-01,-4.280829494588080486e+00
1.836042971218475595e-01,-5.000811863373272992e+00
1.845809157235595022e-01,-5.460794232158464823e+00
1.855575343252714726e-01,-5.840776600943657471e+00
1.865341529269834153e-01,-6.000758969728849479e+00
1.875107715286953858e-01,-6.000741338514041345e+00
1.884873901304073285e-01,-5.880723707299233105e+00
1.894640087321192712e-01,-5.800706076084424900e+00
1.904406273338312416e-01,-5.840688444869617690e+00
1.914172459355431843e-01,-5.940670813654809201e+00
1.923938645372551548e-01,-6.080653182440002524e+00
1.933704831389670975e-01,-6.200635551225193609e+00
1.943471017406790680e-01,-6.320617920010384694e+00
1.953237203423910107e-01,-6.480600288795576702e+00
1.963003389441029811e-01,-6.620582657580770025e+00
1.972769575458149238e-01,-6.760565026365962460e+00
1.982535761475268665e-01,-6.860547395151153971e+00
1.992301947492388370e-01,-6.900529763936344985e+00
2.002068133509507797e-01,-6.880512132721538165e+00
2.011834319526627501e-01,-6.860494501506730458e+00
2.021600505543746928e-01,-6.900476870291921472e+00
2.031366691560866633e-01,-6.880459239077113764e+00
2.041132877577986060e-01,-6.820441607862306022e+00
2.050899063595105765e-01,-6.680423976647499096e+00
2.060665249612225192e-01,-6.620406345432690465e+00
2.070431435629344619e-01,-6.500388714217883113e+00
2.080197621646464323e-01,-6.440371083003075370e+00
2.089963807663583750e-01,-6.420353451788267662e+00
2.099729993680703455e-01,-6.420335820573459529e+00
2.109496179697822882e-01,-6.380318189358650471e+00
2.119262365714942586e-01,-6.360300558143843652e+00
2.129028551732062013e-01,-6.300282926929035021e+00
2.138794737749181718e-01,-6.180265295714227669e+00
2.148560923766301145e-01,-6.000247664499419820e+00
2.158327109783420572e-01,-5.880230033284611579e+00
2.168093295800540277e-01,-5.800212402069803375e+00
2.177859481817659704e-01,-5.760194770854996094e+00
2.187625667834779408e-01,-5.680177139640187889e+00
2.197391853851898835e-01,-5.680159508425380643e+00
2.207158039869018540e-01,-5.780141877210572154e+00
2.216924225886137967e-01,-5.920124245995764589e+00
2.226690411903257671e-01,-6.080106614780956598e+00
2.236456597920377098e-01,-6.200088983566148571e+00
2.246222783937496525e-01,-6.320071352351339655e+00
2.255988969954616230e-01,-6.540053721136532161e+00
2.265755155971735657e-01,-6.800036089921723814e+00
2.275521341988855362e-01,-7.060018458706916356e+00
2.285287528005974789e-01,-7.360000827492108932e+00
2.295053714023094493e-01,-7.839983196277301225e+00
2.304819900040213920e-01,-8.259965565062492132e+00
2.314586086057333625e-01,-8.659947933847684354e+00
2.324352272074453052e-01,-9.079930302632876149e+00
2.334118458091572479e-01,-9.399912671418070076e+00
2.343884644108692183e-01,-9.439895040203259313e+00
2.353650830125811610e-01,-9.059877408988452174e+00
2.363417016142931315e-01,-8.459859777773644396e+00
2.373183202160050742e-01,-7.939842146558837577e+00
2.382949388177170447e-01,-7.359824515344029372e+00
2.392715574194289874e-01,-6.639806884129221487e+00
2.402481760211409578e-01,-5.759789252914414348e+00
2.412247946228529005e-01,-4.979771621699605078e+00
2.422014132245648432e-01,-4.279753990484797654e+00
2.431780318262768137e-01,-3.899736359269988739e+00
2.441546504279887564e-01,-3.259718728055182702e+00
2.451312690297007268e-01,-2.659701096840374923e+00
2.461078876314126695e-01,-2.139683465625565439e+00
2.470845062331246400e-01,-1.779665834410757874e+00
2.480611248348365827e-01,-1.539648203195950416e+00
2.490377434365485532e-01,-1.499630571981143135e+00
2.500143620382604959e-01,-1.519612940766334575e+00
2.509909806399724386e-01,-1.559595309551525588e+00
2.519675992416843813e-01,-1.659577678336719764e+00
2.529442178433963795e-01,-2.439560047121910991e+00
2.539208364451083222e-01,-3.359542415907102786e+00
2.548974550468202649e-01,-4.259524784692295007e+00
2.558740736485322076e-01,-5.099507153477487620e+00
2.568506922502442058e-01,-5.919489522262679770e+00
2.578273108519561485e-01,-6.679471891047871424e+00
2.588039294536680912e-01,-7.299454259833062508e+00
2.597805480553800339e-01,-7.559436628618255050e+00
2.607571666570919766e-01,-7.659418997403448337e+00
2.617337852588039748e-01,-7.739401366188640274e+00
2.627104038605159175e-01,-7.599383734973831572e+00
2.636870224622278602e-01,-7.239366103759024895e+00
2.646636410639398029e-01,-6.739348472544216762e+00
2.656402596656518011e-01,-6.159330841329408557e+00
2.666168782673637438e-01,-5.679313210114599997e+00
2.675934968690756866e-01,-5.339295578899792893e+00
2.685701154707876293e-01,-5.219277947684983765e+00
2.695467340724995720e-01,-5.319260316470175276e+00
2.705233526742115702e-01,-5.699242685255367924e+00
2.714999712759235129e-01,-6.239225054040561602e+00
2.724765898776354556e-01,-6.859207422825752687e+00
2.734532084793473983e-01,-7.439189791610944624e+00
2.744298270810593965e-01,-7.939172160396136491e+00
2.754064456827713392e-01,-7.979154529181328392e+00
2.763830642844832819e-01,-7.859136897966521040e+00
2.773596828861952246e-01,-7.679119266751713191e+00
2.783363014879071673e-01,-7.479101635536903991e+00
2.793129200896191655e-01,-7.259084004322097883e+00
2.802895386913311082e-01,-7.079066373107290033e+00
2.812661572930430509e-01,-6.919048741892481758e+00
2.822427758947549936e-01,-6.699031110677672984e+00
2.832193944964669918e-01,-6.559013479462865170e+00
2.841960130981789345e-01,-6.518995848248057889e+00
2.851726316998908772e-01,-6.558978217033248903e+00
2.861492503016028199e-01,-6.858960585818441480e+00
2.871258689033147626e-01,-7.218942954603633666e+00
2.881024875050267609e-01,-7.558925323388825390e+00
2.890791061067387036e-01,-7.858907692174017967e+00
2.900557247084506463e-01,-8.158890060959210544e+00
2.910323433101625890e-01,-8.398872429744400847e+00
2.920089619118745872e-01,-8.538854798529593282e+00
2.929855805135865299e-01,-8.538837167314785148e+00
2.939621991152984726e-01,-8.618819536099977086e+00
2.949388177170104153e-01,-8.698801904885170799e+00
2.959154363187223580e-01,-8.758784273670363163e+00
2.968920549204343562e-01,-8.658766642455555385e+00
2.978686735221462989e-01,-8.478749011240745759e+00
2.988452921238582416e-01,-8.178731380025938691e+00
2.998219107255701843e-01,-7.898713748811130309e+00
3.007985293272821825e-01,-7.678696117596323312e+00
3.017751479289941252e-01,-7.518678486381515036e+00
3.027517665307060679e-01,-7.318660855166705836e+00
3.037283851324180106e-01,-7.118643223951899301e+00
3.047050037341299533e-01,-6.938625592737091452e+00
3.056816223358419515e-01,-6.758607961522283603e+00
3.066582409375538942e-01,-6.638590330307474474e+00
3.076348595392658369e-01,-6.598572699092668081e+00
3.086114781409777796e-01,-6.558555067877859024e+00
3.095880967426897779e-01,-6.478537436663050819e+00
3.105647153444017206e-01,-6.398519805448242614e+00
3.115413339461136633e-01,-6.258502174233436577e+00
3.125179525478256060e-01,-6.158484543018628798e+00
3.134945711495375487e-01,-6.038466911803819670e+00
3.144711897512495469e-01,-5.958449280589011465e+00
3.154478083529614896e-01,-5.978431649374203793e+00
3.164244269546734323e-01,-5.978414018159395660e+00
3.174010455563853750e-01,-5.918396386944588805e+00
3.183776641580973732e-01,-5.818378755729779250e+00
3.193542827598093159e-01,-5.698361124514972786e+00
3.203309013615212586e-01,-5.618343493300164582e+00
3.213075199632332013e-01,-5.558325862085355951e+00
3.222841385649451440e-01,-5.498308230870549096e+00
3.232607571666571422e-01,-5.478290599655740500e+00
3.242373757683690849e-01,-5.658272968440933859e+00
3.252139943700810276e-01,-5.878255337226124588e+00
3.261906129717929703e-01,-6.138237706011316241e+00
3.271672315735049685e-01,-6.338220074796510062e+00
3.281438501752169112e-01,-6.438202443581701573e+00
3.291204687769288539e-01,-6.398184812366892515e+00
3.300970873786407966e-01,-6.218167181152084666e+00
3.310737059803527393e-01,-5.878149549937277563e+00
3.320503245820647376e-01,-5.498131918722470424e+00
3.330269431837766803e-01,-5.018114287507661864e+00
3.340035617854886230e-01,-4.578096656292854227e+00
3.349801803872005657e-01,-4.258079025078046698e+00
3.359567989889125639e-01,-4.078061393863238848e+00
3.369334175906245066e-01,-4.038043762648429791e+00
3.379100361923364493e-01,-4.158026131433622652e+00
3.388866547940483920e-01,-4.358008500218814696e+00
3.398632733957603347e-01,-4.397990869004005710e+00
3.408398919974723329e-01,-4.377973237789198002e+00
3.418165105991842756e-01,-4.297955606574389797e+00
3.427931292008962183e-01,-4.137937975359582410e+00
3.437697478026081610e-01,-3.937920344144774987e+00
3.447463664043201592e-01,-3.757902712929967137e+00
3.457229850060321019e-01,-3.517885081715158790e+00
3.466996036077440446e-01,-3.337867450500351829e+00
3.476762222094559873e-01,-3.197849819285543127e+00
3.486528408111679300e-01,-3.077832188070735775e+00
3.496294594128799282e-01,-3.017814556855927144e+00
3.506060780145918709e-01,-3.057796925641119046e+00
3.515826966163038136e-01,-3.117779294426311409e+00
3.525593152180157563e-01,-3.177761663211503773e+00
3.535359338197277546e-01,-3.237744031996696137e+00
3.545125524214396973e-01,-3.357726400781888110e+00
3.554891710231516400e-01,-3.517708769567080118e+00
3.564657896248635827e-01,-3.697691138352271700e+00
3.574424082265755254e-01,-3.897673507137462856e+00
3.584190268282875236e-01,-4.057655875922655753e+00
3.593956454299994663e-01,-4.297638244707847832e+00
3.603722640317114090e-01,-4.497620613493040764e+00
3.613488826334233517e-01,-4.637602982278231423e+00
3.623255012351353499e-01,-4.757585351063424284e+00
3.633021198368472926e-01,-4.837567719848617109e+00
3.642787384385592353e-01,-4.917550088633809047e+00
3.652553570402711780e-01,-4.977532457418999634e+00
3.662319756419831207e-01,-5.037514826204191998e+00
3.672085942436951189e-01,-5.097497194989385250e+00
3.681852128454070616e-01,-5.157479563774577613e+00
3.691618314471190043e-01,-5.157461932559769480e+00
3.701384500488309470e-01,-5.157444301344961346e+00
3.711150686505429452e-01,-5.117426670130153177e+00
3.720916872522548879e-01,-5.037409038915344972e+00
3.730683058539668306e-01,-4.877391407700536696e+00
3.740449244556787733e-01,-4.617373776485728776e+00
3.750215430573907716e-01,-4.297356145270921246e+00
3.759981616591027143e-01,-3.917338514056114107e+00
3.769747802608146570e-01,-3.597320882841305689e+00
3.779513988625265997e-01,-3.357303251626497342e+00
3.789280174642385424e-01,-3.237285620411690878e+00
3.799046360659505406e-01,-3.477267989196881182e+00
3.808812546676624833e-01,-3.797250357982073332e+00
