# spatial freqs [1/mm], spectrum [a.u.]
0.000000000000000000e+00,3.392187942651050037e+01
9.766186017119550620e-04,3.404103042995063078e+01
1.953237203423910124e-03,3.420018143339075323e+01
2.929855805135865403e-03,3.429933243683088051e+01
3.906474406847820248e-03,3.431848344027100950e+01
4.883093008559775093e-03,3.433763444371113138e+01
5.859711610271730806e-03,3.435678544715126748e+01
6.836330211983685651e-03,3.441593645059138851e+01
7.812948813695640496e-03,3.457508745403151806e+01
8.789567415407595341e-03,3.483423845747164194e+01
9.766186017119550186e-03,3.515338946091176808e+01
1.074280461883150503e-02,3.551254046435188627e+01
1.171942322054346161e-02,3.587169146779201867e+01
1.269604182225541646e-02,3.613084247123214254e+01
1.367266042396737130e-02,3.638999347467226642e+01
1.464927902567932615e-02,3.662914447811239427e+01
1.562589762739128099e-02,3.676829548155252780e+01
1.660251622910323757e-02,3.674744648499265054e+01
1.757913483081519068e-02,3.644659748843277214e+01
1.855575343252714726e-02,3.612574849187289772e+01
1.953237203423910037e-02,3.592489949531302784e+01
2.050899063595105695e-02,3.594405049875315683e+01
2.148560923766301006e-02,3.600320150219327786e+01
2.246222783937496664e-02,3.610235250563340514e+01
2.343884644108692322e-02,3.614150350907353015e+01
2.441546504279887633e-02,3.616065451251365914e+01
2.539208364451083291e-02,3.619980551595378415e+01
2.636870224622278602e-02,3.627895651939390831e+01
2.734532084793474260e-02,3.629810752283403730e+01
2.832193944964669571e-02,3.633725852627416231e+01
2.929855805135865229e-02,3.635640952971428419e+01
3.027517665307060540e-02,3.647556053315441460e+01
3.125179525478256198e-02,3.659471153659453790e+01
3.222841385649451856e-02,3.669386254003466519e+01
3.320503245820647514e-02,3.683301354347479162e+01
3.418165105991842478e-02,3.691216454691491577e+01
3.515826966163038136e-02,3.701131555035504306e+01
3.613488826334233794e-02,3.713046655379516636e+01
3.711150686505429452e-02,3.718961755723529450e+01
3.808812546676624416e-02,3.722876856067541951e+01
3.906474406847820074e-02,3.718791956411554622e+01
4.004136267019015732e-02,3.714707056755567294e+01
4.101798127190211390e-02,3.708622157099579653e+01
4.199459987361407048e-02,3.702537257443592011e+01
4.297121847532602013e-02,3.690452357787604853e+01
4.394783707703797671e-02,3.680367458131617298e+01
4.492445567874993329e-02,3.672282558475630054e+01
4.590107428046188986e-02,3.660197658819642896e+01
4.687769288217384644e-02,3.646112759163655426e+01
4.785431148388579609e-02,3.628027859507668040e+01
4.883093008559775267e-02,3.619942959851680087e+01
4.980754868730970925e-02,3.611858060195692843e+01
5.078416728902166583e-02,3.609773160539705827e+01
5.176078589073361547e-02,3.607688260883718101e+01
5.273740449244557205e-02,3.601603361227730460e+01
5.371402309415752863e-02,3.593518461571743217e+01
5.469064169586948521e-02,3.577433561915756144e+01
5.566726029758144179e-02,3.555348662259768133e+01
5.664387889929339143e-02,3.519263762603780776e+01
5.762049750100534801e-02,3.491178862947793959e+01
5.859711610271730459e-02,3.467093963291806347e+01
5.957373470442926117e-02,3.449009063635818961e+01
6.055035330614121081e-02,3.442924163979832031e+01
6.152697190785316739e-02,3.446839264323844532e+01
6.250359050956512397e-02,3.464754364667857089e+01
6.348020911127708055e-02,3.494669465011870102e+01
6.445682771298903713e-02,3.528584565355882319e+01
6.543344631470099371e-02,3.558499665699895331e+01
6.641006491641295029e-02,3.580414766043907093e+01
6.738668351812489299e-02,3.594329866387920447e+01
6.836330211983684957e-02,3.592244966731932720e+01
6.933992072154880615e-02,3.578160067075944539e+01
7.031653932326076273e-02,3.564075167419957779e+01
7.129315792497271931e-02,3.551990267763970621e+01
7.226977652668467589e-02,3.545905368107982270e+01
7.324639512839663247e-02,3.545820468451995566e+01
7.422301373010858905e-02,3.561735568796008522e+01
7.519963233182054563e-02,3.577650669140020767e+01
7.617625093353248833e-02,3.587565769484033495e+01
7.715286953524444491e-02,3.593480869828046309e+01
7.812948813695640149e-02,3.587395970172058668e+01
7.910610673866835807e-02,3.565311070516071368e+01
8.008272534038031465e-02,3.531226170860083613e+01
8.105934394209227123e-02,3.493141271204096654e+01
8.203596254380422781e-02,3.447056371548109155e+01
8.301258114551618439e-02,3.408971471892121485e+01
8.398919974722814097e-02,3.378886572236134356e+01
8.496581834894008367e-02,3.358801672580146658e+01
8.594243695065204025e-02,3.344716772924159187e+01
8.691905555236399683e-02,3.332631873268172029e+01
8.789567415407595341e-02,3.332546973612184615e+01
8.887229275578790999e-02,3.324462073956197372e+01
8.984891135749986657e-02,3.270377174300210044e+01
9.082552995921182315e-02,3.278292274644222459e+01
9.180214856092377973e-02,3.248207374988234619e+01
9.277876716263573631e-02,3.212122475332247262e+01
9.375538576434769289e-02,3.176037575676259905e+01
9.473200436605963559e-02,3.139952676020272548e+01
9.570862296777159217e-02,3.111867776364285021e+01
9.668524156948354875e-02,3.085782876708297806e+01
9.766186017119550533e-02,3.073697977052310648e+01
9.863847877290746191e-02,3.065613077396322694e+01
9.961509737461941849e-02,3.063528177740335678e+01
1.005917159763313751e-01,3.063443278084348265e+01
1.015683345780433317e-01,3.057358378428360624e+01
1.025449531797552882e-01,3.041273478772373551e+01
1.035215717814672309e-01,3.015188579116385625e+01
1.044981903831791875e-01,2.993103679460398325e+01
1.054748089848911441e-01,2.961018779804410883e+01
1.064514275866031007e-01,2.918933880148424009e+01
1.074280461883150573e-01,2.872848980492436510e+01
1.084046647900270138e-01,2.826764080836449011e+01
1.093812833917389704e-01,2.782679181180461114e+01
1.103579019934509270e-01,2.746594281524473757e+01
1.113345205951628836e-01,2.716509381868486628e+01
1.123111391968748263e-01,2.698424482212499242e+01
1.132877577985867829e-01,2.682339582556511459e+01
1.142643764002987394e-01,2.666254682900524386e+01
1.152409950020106960e-01,2.650169783244536958e+01
1.162176136037226526e-01,2.610084883588549687e+01
1.171942322054346092e-01,2.563999983932562188e+01
1.181708508071465658e-01,2.511915084276575172e+01
1.191474694088585223e-01,2.451830184620587616e+01
1.201240880105704789e-01,2.401745284964600202e+01
1.211007066122824216e-01,2.367660385308613158e+01
1.220773252139943782e-01,2.333575485652625403e+01
1.230539438157063348e-01,2.297490585996638046e+01
1.240305624174182914e-01,2.261405686340650689e+01
1.250071810191302479e-01,2.227320786684662934e+01
1.259837996208421906e-01,2.189235887028675975e+01
1.269604182225541611e-01,2.159150987372688135e+01
1.279370368242661038e-01,2.125066087716701091e+01
1.289136554259780743e-01,2.078981188060713947e+01
1.298902740276900170e-01,2.028896288404726533e+01
1.308668926294019874e-01,1.966811388748738665e+01
1.318435112311139301e-01,1.914726489092751649e+01
1.328201298328259006e-01,1.864641589436764235e+01
1.337967484345378433e-01,1.836556689780776708e+01
1.347733670362497860e-01,1.844471790124789123e+01
1.357499856379617564e-01,1.868386890468801909e+01
1.367266042396736991e-01,1.910301990812814665e+01
1.377032228413856696e-01,1.954217091156827024e+01
1.386798414430976123e-01,1.990132191500839554e+01
1.396564600448095828e-01,2.022047291844852168e+01
1.406330786465215255e-01,2.035962392188864811e+01
1.416096972482334959e-01,2.041877492532877625e+01
1.425863158499454386e-01,2.029792592876890112e+01
1.435629344516573813e-01,1.985707693220902570e+01
1.445395530533693518e-01,1.913622793564915270e+01
1.455161716550812945e-01,1.813537893908927856e+01
1.464927902567932649e-01,1.693452994252940513e+01
1.474694088585052076e-01,1.581368094596953000e+01
1.484460274602171781e-01,1.475283194940965714e+01
1.494226460619291208e-01,1.387198295284978045e+01
1.503992646636410913e-01,1.325113395628990887e+01
1.513758832653530340e-01,1.279028495973003388e+01
1.523525018670649767e-01,1.240943596317016073e+01
1.533291204687769471e-01,1.200858696661028446e+01
1.543057390704888898e-01,1.162773797005041132e+01
1.552823576722008603e-01,1.138688897349053519e+01
1.562589762739128030e-01,1.108603997693066567e+01
1.572355948756247734e-01,1.078519098037079083e+01
1.582122134773367161e-01,1.038434198381091456e+01
1.591888320790486866e-01,9.763492987251042976e+00
1.601654506807606293e-01,8.962643990691168128e+00
1.611420692824725720e-01,8.141794994131293706e+00
1.621186878841845425e-01,7.240945997571420989e+00
1.630953064858964852e-01,6.520097001011544435e+00
1.640719250876084556e-01,5.919248004451672429e+00
1.650485436893203983e-01,5.498399007891796586e+00
1.660251622910323688e-01,5.197550011331921738e+00
1.670017808927443115e-01,5.056701014772050584e+00
1.679783994944562819e-01,4.875852018212173178e+00
1.689550180961682246e-01,4.595003021652303232e+00
1.699316366978801673e-01,4.354154025092427105e+00
1.709082552995921378e-01,4.053305028532554033e+00
1.718848739013040805e-01,3.672456031972680890e+00
1.728614925030160510e-01,3.171607035412806752e+00
1.738381111047279937e-01,2.630758038852931691e+00
1.748147297064399641e-01,1.989909042293056984e+00
1.757913483081519068e-01,1.349060045733184054e+00
1.767679669098638773e-01,8.282110491733085667e-01
1.777445855115758200e-01,5.473620526134350683e-01
1.787212041132877627e-01,2.465130560535619964e-01
1.796978227149997331e-01,2.566405949368721906e-02
1.806744413167116758e-01,-1.951849370661875582e-01
1.816510599184236463e-01,-4.760339336260610565e-01
1.826276785201355890e-01,-7.968829301859337022e-01
1.836042971218475595e-01,-1.297731926745807840e+00
1.845809157235595022e-01,-1.778580923305682404e+00
1.855575343252714726e-01,-2.379429919865556187e+00
1.865341529269834153e-01,-3.060278916425430040e+00
1.875107715286953858e-01,-3.821127912985303965e+00
1.884873901304073285e-01,-4.501976909545178707e+00
1.894640087321192712e-01,-5.162825906105052987e+00
1.904406273338312416e-01,-5.683674902664926698e+00
1.914172459355431843e-01,-6.044523899224801156e+00
1.923938645372551548e-01,-6.205372895784675435e+00
1.933704831389670975e-01,-6.206221892344549573e+00
1.943471017406790680e-01,-6.327070888904422929e+00
1.953237203423910107e-01,-6.427919885464297600e+00
1.963003389441029811e-01,-6.628768882024170139e+00
1.972769575458149238e-01,-6.889617878584044064e+00
1.982535761475268665e-01,-7.290466875143917669e+00
1.992301947492388370e-01,-7.811315871703792268e+00
2.002068133509507797e-01,-8.512164868263665696e+00
2.011834319526627501e-01,-9.233013864823540473e+00
2.021600505543746928e-01,-9.813862861383414682e+00
2.031366691560866633e-01,-1.027471185794328790e+01
2.041132877577986060e-01,-1.047556085450316310e+01
2.050899063595105765e-01,-1.045640985106303766e+01
2.060665249612225192e-01,-1.027725884762291031e+01
2.070431435629344619e-01,-1.015810784418278523e+01
2.080197621646464323e-01,-9.918956840742659153e+00
2.089963807663583750e-01,-9.839805837302533220e+00
2.099729993680703455e-01,-9.800654833862406434e+00
2.109496179697822882e-01,-9.901503830422280217e+00
2.119262365714942586e-01,-1.008235282698215407e+01
2.129028551732062013e-01,-1.028320182354202927e+01
2.138794737749181718e-01,-1.042405082010190220e+01
2.148560923766301145e-01,-1.050489981666177641e+01
2.158327109783420572e-01,-1.058574881322165062e+01
2.168093295800540277e-01,-1.064659780978152526e+01
2.177859481817659704e-01,-1.080744680634139954e+01
2.187625667834779408e-01,-1.102829580290127254e+01
2.197391853851898835e-01,-1.126914479946114689e+01
2.207158039869018540e-01,-1.154999379602102216e+01
2.216924225886137967e-01,-1.189084279258089616e+01
2.226690411903257671e-01,-1.225169178914076973e+01
2.236456597920377098e-01,-1.245254078570064138e+01
2.246222783937496525e-01,-1.275338978226051623e+01
2.255988969954616230e-01,-1.307423877882039065e+01
2.265755155971735657e-01,-1.347508777538026514e+01
2.275521341988855362e-01,-1.389593677194013921e+01
2.285287528005974789e-01,-1.431678576850001328e+01
2.295053714023094493e-01,-1.471763476505988777e+01
2.304819900040213920e-01,-1.501848376161976084e+01
2.314586086057333625e-01,-1.519933275817963469e+01
2.324352272074453052e-01,-1.514018175473950834e+01
2.334118458091572479e-01,-1.508103075129938375e+01
2.343884644108692183e-01,-1.498187974785925825e+01
2.353650830125811610e-01,-1.488272874441913274e+01
2.363417016142931315e-01,-1.488357774097900688e+01
2.373183202160050742e-01,-1.492442673753887838e+01
2.382949388177170447e-01,-1.504527573409875174e+01
2.392715574194289874e-01,-1.522612473065862559e+01
2.402481760211409578e-01,-1.540697372721850122e+01
2.412247946228529005e-01,-1.550782272377837501e+01
2.422014132245648432e-01,-1.564867172033824971e+01
2.431780318262768137e-01,-1.586952071689812271e+01
2.441546504279887564e-01,-1.619036971345799714e+01
2.451312690297007268e-01,-1.663121871001787255e+01
2.461078876314126695e-01,-1.707206770657774442e+01
2.470845062331246400e-01,-1.747291670313762069e+01
2.480611248348365827e-01,-1.789376569969749298e+01
2.490377434365485532e-01,-1.817461469625736825e+01
2.500143620382604959e-01,-1.837546369281724168e+01
2.509909806399724386e-01,-1.851631268937711639e+01
2.519675992416843813e-01,-1.871716168593698981e+01
2.529442178433963795e-01,-1.881801068249686182e+01
2.539208364451083222e-01,-1.883885967905673553e+01
2.548974550468202649e-01,-1.883970867561660967e+01
2.558740736485322076e-01,-1.880055767217648466e+01
2.568506922502442058e-01,-1.870140666873636093e+01
2.578273108519561485e-01,-1.854225566529623137e+01
2.588039294536680912e-01,-1.842310466185610807e+01
2.597805480553800339e-01,-1.840395365841598263e+01
2.607571666570919766e-01,-1.850480265497585464e+01
2.617337852588039748e-01,-1.870565165153573162e+01
2.627104038605159175e-01,-1.896650064809560376e+01
2.636870224622278602e-01,-1.920734964465547989e+01
2.646636410639398029e-01,-1.942819864121534934e+01
2.656402596656518011e-01,-1.954904763777522447e+01
2.666168782673637438e-01,-1.962989663433509691e+01
2.675934968690756866e-01,-1.961074563089497502e+01
2.685701154707876293e-01,-1.937159462745484717e+01
2.695467340724995720e-01,-1.911244362401472330e+01
2.705233526742115702e-01,-1.885329262057459587e+01
2.714999712759235129e-01,-1.857414161713446887e+01
2.724765898776354556e-01,-1.827499061369434230e+01
2.734532084793473983e-01,-1.791583961025421701e+01
2.744298270810593965e-01,-1.751668860681409257e+01
2.754064456827713392e-01,-1.725753760337396514e+01
2.763830642844832819e-01,-1.703838659993384042e+01
2.773596828861952246e-01,-1.689923559649371398e+01
2.783363014879071673e-01,-1.680008459305358670e+01
2.793129200896191655e-01,-1.668093358961345984e+01
2.802895386913311082e-01,-1.660178258617333569e+01
2.812661572930430509e-01,-1.648263158273320883e+01
2.822427758947549936e-01,-1.636348057929308197e+01
2.832193944964669918e-01,-1.616432957585295682e+01
2.841960130981789345e-01,-1.592517857241283252e+01
2.851726316998908772e-01,-1.576602756897270652e+01
2.861492503016028199e-01,-1.566687656553257924e+01
2.871258689033147626e-01,-1.560772556209245465e+01
2.881024875050267609e-01,-1.566857455865232751e+01
2.890791061067387036e-01,-1.578942355521220264e+01
2.900557247084506463e-01,-1.597027255177207650e+01
2.910323433101625890e-01,-1.617112154833194992e+01
2.920089619118745872e-01,-1.637197054489182335e+01
2.929855805135865299e-01,-1.655281954145169721e+01
2.939621991152984726e-01,-1.659366853801157049e+01
2.949388177170104153e-01,-1.655451753457144548e+01
2.959154363187223580e-01,-1.643536653113131862e+01
2.968920549204343562e-01,-1.619621552769119432e+01
2.978686735221462989e-01,-1.595706452425106647e+01
2.988452921238582416e-01,-1.567791352081094125e+01
2.998219107255701843e-01,-1.539876251737081603e+01
3.007985293272821825e-01,-1.515961151393068995e+01
3.017751479289941252e-01,-1.502046051049056530e+01
3.027517665307060679e-01,-1.488130950705043887e+01
3.037283851324180106e-01,-1.478215850361031158e+01
3.047050037341299533e-01,-1.478300750017018572e+01
3.056816223358419515e-01,-1.480385649673005943e+01
3.066582409375538942e-01,-1.478470549328993400e+01
3.076348595392658369e-01,-1.470555448984980629e+01
3.086114781409777796e-01,-1.456640348640968163e+01
3.095880967426897779e-01,-1.442725248296955520e+01
3.105647153444017206e-01,-1.422810147952943005e+01
3.115413339461136633e-01,-1.404895047608930447e+01
3.125179525478256060e-01,-1.386979947264917712e+01
3.134945711495375487e-01,-1.367064846920905197e+01
3.144711897512495469e-01,-1.351149746576892596e+01
3.154478083529614896e-01,-1.333234646232880038e+01
3.164244269546734323e-01,-1.315319545888867481e+01
3.174010455563853750e-01,-1.297404445544854923e+01
3.183776641580973732e-01,-1.277489345200842052e+01
3.193542827598093159e-01,-1.259574244856829495e+01
3.203309013615212586e-01,-1.245659144512816852e+01
3.213075199632332013e-01,-1.235744044168804301e+01
3.222841385649451440e-01,-1.221828943824791835e+01
3.232607571666571422e-01,-1.207913843480779192e+01
3.242373757683690849e-01,-1.191998743136766592e+01
3.252139943700810276e-01,-1.178083642792753949e+01
3.261906129717929703e-01,-1.156168542448741476e+01
3.271672315735049685e-01,-1.136253442104728784e+01
3.281438501752169112e-01,-1.112338341760716176e+01
3.291204687769288539e-01,-1.090423241416703704e+01
3.300970873786407966e-01,-1.064508141072691139e+01
3.310737059803527393e-01,-1.044593040728678446e+01
3.320503245820647376e-01,-1.024677940384665753e+01
3.330269431837766803e-01,-1.010762840040653110e+01
3.340035617854886230e-01,-9.948477396966405095e+00
3.349801803872005657e-01,-9.769326393526279517e+00
3.359567989889125639e-01,-9.590175390086153939e+00
3.369334175906245066e-01,-9.431024386646027935e+00
3.379100361923364493e-01,-9.251873383205902357e+00
3.388866547940483920e-01,-9.092722379765776353e+00
3.398632733957603347e-01,-8.973571376325651272e+00
3.408398919974723329e-01,-8.874420372885523989e+00
3.418165105991842756e-01,-8.755269369445398908e+00
3.427931292008962183e-01,-8.656118366005273401e+00
3.437697478026081610e-01,-8.556967362565146118e+00
3.447463664043201592e-01,-8.457816359125020611e+00
3.457229850060321019e-01,-8.378665355684892901e+00
3.466996036077440446e-01,-8.299514352244766968e+00
3.476762222094559873e-01,-8.180363348804641888e+00
3.486528408111679300e-01,-8.061212345364516807e+00
3.496294594128799282e-01,-7.882061341924389453e+00
3.506060780145918709e-01,-7.722910338484264337e+00
3.515826966163038136e-01,-7.563759335044138332e+00
3.525593152180157563e-01,-7.384608331604011866e+00
3.535359338197277546e-01,-7.225457328163886750e+00
3.545125524214396973e-01,-7.106306324723760781e+00
3.554891710231516400e-01,-6.907155321283634741e+00
3.564657896248635827e-01,-6.708004317843508701e+00
3.574424082265755254e-01,-6.488853314403383088e+00
3.584190268282875236e-01,-6.329702310963257084e+00
3.593956454299994663e-01,-6.230551307523129800e+00
3.603722640317114090e-01,-6.151400304083003867e+00
3.613488826334233517e-01,-6.112249300642877969e+00
3.623255012351353499e-01,-6.133098297202751681e+00
3.633021198368472926e-01,-6.213947293762625890e+00
3.642787384385592353e-01,-6.334796290322500134e+00
3.652553570402711780e-01,-6.415645286882374343e+00
3.662319756419831207e-01,-6.416494283442248481e+00
3.672085942436951189e-01,-6.337343280002122548e+00
3.681852128454070616e-01,-6.158192276561996970e+00
3.691618314471190043e-01,-5.919041273121870894e+00
3.701384500488309470e-01,-5.639890269681744783e+00
3.711150686505429452e-01,-5.240739266241619454e+00
3.720916872522548879e-01,-4.881588262801493272e+00
3.730683058539668306e-01,-4.602437259361365385e+00
3.740449244556787733e-01,-4.383286255921239771e+00
3.750215430573907716e-01,-4.244135252481114229e+00
3.759981616591027143e-01,-4.224984249040987905e+00
3.769747802608146570e-01,-4.165833245600862433e+00
3.779513988625265997e-01,-4.066682242160736038e+00
3.789280174642385424e-01,-3.947531238720610069e+00
3.799046360659505406e-01,-3.828380235280484101e+00
3.808812546676624833e-01,-3.669229231840358096e+00
3.818578732693744260e-01,-3.490078228400232518e+00
3.828344918710863687e-01,-3.270927224960107793e+00
3.838111104727983669e-01,-3.091776221519980439e+00
3.847877290745103096e-01,-2.932625218079854434e+00
